SpectraSuite Datei
++++++++++++++++++++++++++++++++++++
Datum: Tue Jun 03 14:51:38 CEST 2014
Benutzer: Admin
Dark-Spektrum vorhanden: Ja
Referenz-Spektrum vorhanden: Nein
Zahl der probierten Teilspektren: 1
Spektrometer: USB4F03547
Integrationszeit (usec): 100000 (USB4F03547)
Spektren Durchschnitt berechnet: 3 (USB4F03547)
Boxcar GlÃ¤ttung: 0 (USB4F03547)
Dunkelstromkorrektur: Nein (USB4F03547)
Puls/Lampe aktiviert: Nein (USB4F03547)
Correct for Detector Non-linearity: Nein (USB4F03547)
Streulichtkorrektur: Nein (USB4F03547)
Anzahl Pixel in verarbeitetem Spektrum: 3648
>>>>>Begin Processed Spectral Data<<<<<
179,21	25,26
179,43	25,26
179,64	25,26
179,86	-40,96
180,07	79,87
180,29	32,08
180,50	73,73
180,72	71,00
180,93	-46,42
181,15	75,09
181,37	40,28
181,58	56,66
181,80	5,46
182,01	-6,83
182,23	15,02
182,44	-12,97
182,66	28,67
182,87	36,86
183,09	90,11
183,30	161,79
183,52	39,59
183,73	33,45
183,95	96,25
184,16	51,88
184,38	54,61
184,60	58,03
184,81	86,01
185,03	54,61
185,24	109,22
185,46	80,55
185,67	12,29
185,89	58,71
186,10	21,16
186,32	18,43
186,53	30,04
186,75	119,46
186,96	39,59
187,18	0,00
187,39	135,85
187,61	77,82
187,82	104,45
188,04	97,62
188,25	84,65
188,47	39,59
188,68	27,31
188,90	106,49
189,11	120,83
189,33	166,57
189,54	159,06
189,76	36,86
189,97	101,03
190,19	78,51
190,40	124,93
190,62	53,93
190,83	24,58
191,05	103,08
191,26	77,14
191,48	35,50
191,69	51,88
191,91	42,32
192,12	55,98
192,34	38,91
192,55	121,51
192,77	60,76
192,98	90,79
193,20	77,82
193,41	34,82
193,63	67,58
193,84	109,23
194,06	92,16
194,27	75,09
194,49	-37,55
194,70	100,35
194,92	63,49
195,13	34,13
195,35	142,68
195,56	74,41
195,78	101,03
195,99	58,71
196,21	128,34
196,42	166,57
196,64	85,33
196,85	53,25
197,07	69,63
197,28	10,24
197,50	157,69
197,71	40,28
197,93	119,46
198,14	111,96
198,36	105,13
198,57	139,94
198,79	113,32
199,00	87,38
199,21	16,38
199,43	27,99
199,64	59,39
199,86	89,43
200,07	70,31
200,29	74,41
200,50	72,36
200,72	53,93
200,93	12,97
201,15	92,16
201,36	90,11
201,58	7,51
201,79	67,58
202,01	32,08
202,22	31,40
202,43	64,17
202,65	144,04
202,86	37,55
203,08	-4,78
203,29	77,14
203,51	133,80
203,72	78,51
203,94	105,13
204,15	6,14
204,37	71,68
204,58	113,32
204,80	9,56
205,01	64,85
205,22	65,53
205,44	113,32
205,65	83,97
205,87	21,85
206,08	23,21
206,30	78,51
206,51	58,71
206,73	64,17
206,94	28,67
207,15	105,13
207,37	62,80
207,58	32,77
207,80	81,24
208,01	156,33
208,23	83,97
208,44	81,24
208,66	91,48
208,87	92,16
209,08	105,13
209,30	62,12
209,51	63,49
209,73	102,40
209,94	114,69
210,16	36,86
210,37	113,32
210,58	89,43
210,80	91,48
211,01	12,29
211,23	96,25
211,44	62,80
211,66	22,53
211,87	71,00
212,08	66,22
212,30	62,80
212,51	94,89
212,73	99,67
212,94	115,37
213,16	135,17
213,37	91,48
213,58	30,72
213,80	68,95
214,01	19,80
214,23	71,68
214,44	91,48
214,65	122,20
214,87	19,11
215,08	37,55
215,30	73,73
215,51	75,09
215,73	68,95
215,94	56,66
216,15	89,43
216,37	133,80
216,58	83,97
216,80	156,33
217,01	38,23
217,22	48,47
217,44	3,41
217,65	25,26
217,87	131,07
218,08	85,33
218,29	111,27
218,51	49,83
218,72	91,48
218,94	30,72
219,15	84,65
219,36	77,82
219,58	-8,19
219,79	68,27
220,01	25,94
220,22	67,58
220,43	74,41
220,65	98,30
220,86	30,04
221,08	106,49
221,29	83,97
221,50	84,65
221,72	30,72
221,93	140,63
222,14	62,80
222,36	42,32
222,57	127,66
222,79	73,73
223,00	114,00
223,21	86,70
223,43	115,37
223,64	103,76
223,86	124,24
224,07	48,47
224,28	103,08
224,50	83,28
224,71	15,02
224,92	4,10
225,14	124,24
225,35	81,92
225,57	1,37
225,78	101,03
225,99	75,09
226,21	73,04
226,42	139,94
226,63	53,25
226,85	56,66
227,06	34,82
227,27	124,24
227,49	88,75
227,70	55,98
227,92	73,73
228,13	22,53
228,34	121,51
228,56	76,46
228,77	81,92
228,98	129,70
229,20	21,85
229,41	88,06
229,62	38,91
229,84	90,11
230,05	63,49
230,27	66,22
230,48	103,08
230,69	39,59
230,91	19,11
231,12	-40,96
231,33	71,00
231,55	106,49
231,76	83,97
231,97	109,22
232,19	86,70
232,40	115,37
232,61	100,35
232,83	98,30
233,04	86,70
233,25	83,97
233,47	83,97
233,68	123,56
233,89	109,91
234,11	46,42
234,32	107,18
234,53	43,01
234,75	12,29
234,96	58,03
235,17	48,47
235,39	141,99
235,60	25,26
235,81	141,31
236,03	159,74
236,24	22,53
236,45	103,76
236,67	139,94
236,88	55,98
237,09	114,00
237,31	92,84
237,52	45,06
237,73	92,84
237,95	109,22
238,16	66,22
238,37	71,68
238,59	96,94
238,80	113,32
239,01	83,28
239,23	78,51
239,44	37,55
239,65	120,15
239,87	68,95
240,08	53,93
240,29	70,31
240,51	41,64
240,72	136,53
240,93	6,14
241,14	98,99
241,36	152,91
241,57	58,03
241,78	118,78
242,00	73,73
242,21	81,92
242,42	137,90
242,64	103,76
242,85	79,19
243,06	110,59
243,28	139,94
243,49	17,07
243,70	101,03
243,91	109,23
244,13	-5,46
244,34	64,85
244,55	26,62
244,77	73,04
244,98	95,57
245,19	93,52
245,41	87,38
245,62	64,85
245,83	139,94
246,04	101,72
246,26	127,66
246,47	111,27
246,68	80,55
246,90	49,83
247,11	87,38
247,32	88,75
247,53	133,80
247,75	49,15
247,96	107,18
248,17	68,95
248,39	8,19
248,60	46,42
248,81	66,22
249,02	96,94
249,24	74,41
249,45	112,64
249,66	151,55
249,87	119,46
250,09	53,25
250,30	81,24
250,51	81,92
250,73	83,97
250,94	35,50
251,15	140,63
251,36	80,55
251,58	55,98
251,79	103,76
252,00	77,14
252,21	27,99
252,43	124,24
252,64	45,74
252,85	89,43
253,07	25,26
253,28	89,43
253,49	102,40
253,70	47,79
253,92	183,63
254,13	105,13
254,34	90,11
254,55	72,36
254,77	49,83
254,98	50,52
255,19	94,89
255,40	39,59
255,62	96,94
255,83	26,62
256,04	111,96
256,25	45,06
256,47	70,31
256,68	90,79
256,89	180,90
257,10	36,86
257,32	186,37
257,53	172,71
257,74	30,72
257,95	108,54
258,17	99,67
258,38	73,73
258,59	55,98
258,80	158,38
259,02	76,46
259,23	104,45
259,44	126,29
259,65	97,62
259,86	90,79
260,08	60,76
260,29	126,97
260,50	107,18
260,71	20,48
260,93	133,12
261,14	168,62
261,35	98,99
261,56	92,16
261,78	47,10
261,99	57,34
262,20	97,62
262,41	92,84
262,62	11,61
262,84	79,87
263,05	64,85
263,26	92,84
263,47	89,43
263,69	96,94
263,90	53,25
264,11	148,14
264,32	107,18
264,53	103,08
264,75	29,35
264,96	92,16
265,17	28,67
265,38	47,79
265,59	21,16
265,81	83,28
266,02	116,05
266,23	94,89
266,44	65,54
266,66	80,55
266,87	45,06
267,08	44,37
267,29	125,61
267,50	87,38
267,72	66,90
267,93	78,51
268,14	93,52
268,35	107,18
268,56	155,65
268,78	48,47
268,99	99,67
269,20	84,65
269,41	129,02
269,62	118,78
269,84	92,16
270,05	114,00
270,26	101,03
270,47	84,65
270,68	50,52
270,89	-7,51
271,11	86,01
271,32	130,39
271,53	103,76
271,74	169,98
271,95	61,44
272,17	129,02
272,38	99,67
272,59	87,38
272,80	92,16
273,01	106,49
273,22	78,51
273,44	69,63
273,65	116,73
273,86	65,54
274,07	85,33
274,28	86,01
274,50	93,52
274,71	108,54
274,92	77,14
275,13	99,67
275,34	99,67
275,55	200,02
275,77	124,93
275,98	72,36
276,19	108,54
276,40	118,78
276,61	164,52
276,82	35,50
277,04	58,03
277,25	114,00
277,46	60,07
277,67	163,84
277,88	182,27
278,09	142,68
278,31	123,56
278,52	58,03
278,73	25,26
278,94	72,36
279,15	91,48
279,36	202,75
279,57	172,71
279,79	78,51
280,00	130,39
280,21	117,42
280,42	32,08
280,63	156,33
280,84	106,49
281,05	40,28
281,27	36,18
281,48	131,75
281,69	81,24
281,90	150,18
282,11	75,77
282,32	101,03
282,53	162,47
282,75	115,37
282,96	154,96
283,17	141,31
283,38	141,99
283,59	107,86
283,80	100,35
284,01	62,12
284,23	150,87
284,44	99,67
284,65	77,14
284,86	80,55
285,07	2,73
285,28	137,21
285,49	95,57
285,70	189,10
285,92	157,01
286,13	165,89
286,34	102,40
286,55	106,49
286,76	107,18
286,97	152,23
287,18	59,39
287,39	61,44
287,61	167,25
287,82	61,44
288,03	103,08
288,24	115,37
288,45	14,34
288,66	107,18
288,87	133,12
289,08	111,27
289,29	129,70
289,51	-24,58
289,72	143,36
289,93	162,47
290,14	77,82
290,35	89,43
290,56	88,75
290,77	121,51
290,98	116,05
291,19	138,58
291,40	104,45
291,62	118,10
291,83	125,61
292,04	58,03
292,25	172,71
292,46	33,45
292,67	206,84
292,88	190,46
293,09	90,79
293,30	117,42
293,51	141,99
293,73	161,11
293,94	98,99
294,15	191,14
294,36	114,00
294,57	120,15
294,78	30,72
294,99	68,27
295,20	146,09
295,41	81,92
295,62	81,92
295,83	240,30
296,04	160,42
296,26	96,25
296,47	103,76
296,68	178,17
296,89	64,17
297,10	173,39
297,31	173,39
297,52	139,94
297,73	65,53
297,94	225,28
298,15	185,68
298,36	72,36
298,57	141,31
298,78	175,44
298,99	107,86
299,21	178,17
299,42	60,07
299,63	75,09
299,84	67,58
300,05	93,52
300,26	147,45
300,47	150,87
300,68	195,92
300,89	138,58
301,10	147,45
301,31	161,11
301,52	196,61
301,73	162,47
301,94	172,71
302,15	207,53
302,36	148,82
302,57	128,34
302,79	122,20
303,00	154,96
303,21	226,64
303,42	158,38
303,63	240,98
303,84	252,58
304,05	208,21
304,26	189,78
304,47	297,64
304,68	261,46
304,89	309,93
305,10	272,38
305,31	310,61
305,52	397,99
305,73	307,88
305,94	401,40
306,15	390,48
306,36	484,69
306,57	472,40
306,78	412,32
306,99	537,93
307,20	516,09
307,41	491,51
307,62	453,97
307,83	509,94
308,04	624,63
308,25	638,97
308,46	584,35
308,68	687,43
308,89	787,79
309,10	846,49
309,31	895,64
309,52	902,47
309,73	858,78
309,94	884,72
310,15	974,15
310,36	857,42
310,57	871,75
310,78	935,92
310,99	964,59
311,20	983,71
311,41	1026,72
311,62	1154,37
311,83	1236,97
312,04	1460,20
312,25	1445,87
312,46	1578,98
312,67	1655,44
312,88	1591,95
313,09	1590,59
313,30	1602,88
313,51	1581,03
313,72	1705,96
313,93	1723,71
314,14	1781,05
314,35	1841,81
314,56	1859,56
314,77	1949,67
314,98	1917,58
315,19	1933,28
315,40	1984,48
315,61	1933,97
315,82	2022,03
316,03	2078,69
316,24	2136,71
316,45	2138,76
316,66	2133,30
316,87	2103,95
317,08	2082,10
317,29	2153,78
317,50	2196,11
317,71	2235,70
317,92	2226,82
318,13	2544,26
318,34	2722,43
318,55	2983,89
318,76	3005,74
318,96	3167,52
319,17	3127,93
319,38	3117,01
319,59	3030,99
319,80	3156,60
320,01	3105,40
320,22	3220,09
320,43	3340,92
320,64	3512,27
320,85	3508,17
321,06	3550,50
321,27	3801,71
321,48	3833,80
321,69	4106,18
321,90	4347,16
322,11	4173,76
322,32	4188,10
322,53	4013,34
322,74	3986,71
322,95	4098,67
323,16	3991,49
323,37	4024,94
323,58	3937,56
323,79	3930,05
324,00	3847,45
324,21	3789,42
324,42	3823,56
324,62	3852,91
324,83	4141,68
325,04	4211,99
325,25	4529,42
325,46	4318,48
325,67	4497,34
325,88	4693,26
326,09	4641,38
326,30	4820,92
326,51	4959,50
326,72	5153,37
326,93	5312,43
327,14	5803,26
327,35	6053,80
327,56	6261,32
327,77	6229,92
327,98	6185,55
328,18	6330,95
328,39	6421,06
328,60	6222,41
328,81	6059,26
329,02	6158,24
329,23	6171,21
329,44	5812,14
329,65	6061,99
329,86	5967,10
330,07	6367,82
330,28	6662,72
330,49	6825,88
330,70	7288,04
330,91	7402,72
331,11	7473,72
331,32	7275,07
331,53	7308,52
331,74	6953,54
331,95	7018,39
332,16	6625,86
332,37	6732,36
332,58	6477,04
332,79	6800,62
333,00	6921,45
333,21	6678,43
333,42	6860,01
333,62	6993,81
333,83	6869,57
334,04	6928,96
334,25	6950,12
334,46	6954,22
334,67	6683,89
334,88	6732,36
335,09	6548,04
335,30	6787,65
335,51	6812,23
335,71	7097,58
335,92	7195,20
336,13	7372,69
336,34	7285,99
336,55	7315,34
336,76	7142,63
336,97	7136,49
337,18	6684,57
337,39	6438,81
337,59	6918,04
337,80	8461,52
338,01	7731,08
338,22	7098,26
338,43	6622,45
338,64	6597,19
338,85	6707,10
339,06	6802,67
339,27	6931,01
339,47	7462,80
339,68	7225,92
339,89	7658,04
340,10	7460,07
340,31	7666,91
340,52	7472,36
340,73	7705,14
340,94	8137,95
341,14	8270,38
341,35	8277,21
341,56	8245,80
341,77	8127,71
341,98	7988,44
342,19	7770,68
342,40	7943,39
342,61	7678,52
342,81	8024,62
343,02	7978,89
343,23	8275,16
343,44	8219,18
343,65	8236,93
343,86	8531,16
344,07	8453,33
344,27	8299,05
344,48	8740,05
344,69	8088,11
344,90	7763,85
345,11	7363,13
345,32	7206,12
345,53	6720,07
345,73	6995,18
345,94	7001,32
346,15	8034,86
346,36	7946,80
346,57	7961,82
346,78	8028,04
346,98	8226,01
347,19	8239,66
347,40	8015,07
347,61	7847,82
347,82	8359,13
348,03	8232,83
348,24	8467,67
348,44	7926,32
348,65	8358,44
348,86	7842,36
349,07	8258,78
349,28	8041,01
349,49	8456,75
349,69	8118,15
349,90	8352,98
350,11	7903,11
350,32	8156,38
350,53	8116,10
350,74	8232,83
350,94	8688,17
351,15	9074,55
351,36	9292,32
351,57	9419,97
351,78	9461,62
351,98	9581,76
352,19	9555,14
352,40	9009,01
352,61	9112,10
352,82	8976,25
353,03	9112,10
353,23	8782,37
353,44	8700,45
353,65	8766,67
353,86	8630,14
354,07	8900,47
354,27	8929,14
354,48	9194,01
354,69	9854,83
354,90	9953,81
355,11	10246,67
355,31	10097,17
355,52	9933,33
355,73	10801,67
355,94	10285,58
356,15	10537,48
356,35	10201,62
356,56	9950,40
356,77	9684,84
356,98	9712,83
357,19	9523,74
357,39	9283,44
357,60	8968,06
357,81	8667,00
358,02	8268,33
358,23	7907,89
358,43	8112,69
358,64	8079,92
358,85	7865,57
359,06	7795,25
359,27	7347,43
359,47	7163,79
359,68	7177,45
359,89	7767,26
360,10	7904,48
360,30	9046,56
360,51	9454,11
360,72	10352,48
360,93	10534,75
361,14	10563,42
361,34	10233,02
361,55	10155,19
361,76	9496,43
361,97	9815,91
362,17	9131,21
362,38	8764,62
362,59	9182,41
362,80	9229,51
363,00	9596,10
363,21	9462,98
363,42	10073,96
363,63	10451,47
363,84	10304,01
364,04	10809,86
364,25	10411,87
364,46	10872,67
364,67	10039,14
364,87	10763,44
365,08	10899,29
365,29	10997,59
365,50	10636,47
365,70	10811,91
365,91	10889,05
366,12	11816,10
366,33	11071,32
366,53	12407,96
366,74	12194,97
366,95	13325,45
367,16	12925,41
367,36	13577,35
367,57	13188,92
367,78	13233,29
367,99	13206,67
368,19	13005,97
368,40	12911,76
368,61	12683,75
368,81	12585,45
369,02	12597,74
369,23	12208,62
369,44	12358,81
369,64	11838,62
369,85	12567,70
370,06	12561,56
370,27	12631,87
370,47	13070,14
370,68	13672,92
370,89	13108,37
371,10	13870,89
371,30	13067,41
371,51	12955,45
371,72	12635,97
371,92	12780,69
372,13	12763,62
372,34	13033,27
372,55	12921,32
372,75	12883,77
372,96	12354,71
373,17	12465,30
373,37	11687,08
373,58	11990,17
373,79	12038,64
374,00	11378,51
374,20	11162,79
374,41	10748,42
374,62	10350,43
374,82	10159,29
375,03	10422,80
375,24	10603,70
375,45	10351,12
375,65	10278,07
375,86	10618,72
376,07	10865,16
376,27	11203,07
376,48	11807,91
376,69	11853,64
376,89	12257,78
377,10	12394,31
377,31	12350,62
377,52	12573,16
377,72	12287,81
377,93	12798,44
378,14	13863,38
378,34	13958,95
378,55	14653,90
378,76	14918,09
378,96	15638,29
379,17	15900,43
379,38	15741,37
379,58	15302,42
379,79	14584,27
380,00	13961,00
380,20	13826,52
380,41	12859,88
380,62	13003,92
380,82	12052,30
381,03	12996,41
381,24	12995,04
381,44	13794,43
381,65	14220,41
381,86	14405,41
382,06	13661,32
382,27	13416,24
382,48	13003,24
382,68	11784,69
382,89	11376,47
383,10	10580,49
383,30	10145,64
383,51	9841,17
383,72	9114,14
383,92	8964,64
384,13	8557,10
384,34	8565,29
384,54	8963,96
384,75	8776,91
384,96	9330,55
385,16	9725,12
385,37	10697,22
385,58	11522,55
385,78	11902,79
385,99	12508,99
386,20	12489,20
386,40	12436,63
386,61	10981,89
386,82	11921,91
387,02	10924,55
387,23	11883,00
387,44	11425,62
387,64	12524,69
387,85	12077,55
388,05	12607,98
388,26	11731,45
388,47	11937,61
388,67	12151,96
388,88	12242,07
389,09	11784,01
389,29	12267,33
389,50	11859,79
389,71	11497,30
389,91	12614,80
390,12	12913,81
390,32	13727,53
390,53	14488,01
390,74	14371,28
390,94	14152,15
391,15	14363,77
391,36	14268,20
391,56	15305,15
391,77	15608,25
391,97	15436,22
392,18	16635,65
392,39	16023,31
392,59	15756,39
392,80	15534,53
393,00	14256,59
393,21	13452,42
393,42	12730,86
393,62	11103,40
393,83	10496,52
394,04	8966,69
394,24	7866,93
394,45	7556,32
394,65	7796,62
394,86	8763,26
395,07	10097,85
395,27	10882,22
395,48	12238,66
395,68	14018,35
395,89	14760,39
396,10	15484,01
396,30	15632,83
396,51	15243,71
396,71	14907,16
396,92	14261,37
397,13	13184,14
397,33	11523,24
397,54	10340,88
397,74	9331,23
397,95	9325,08
398,15	9830,25
398,36	11398,99
398,57	13214,86
398,77	13741,87
398,98	16484,78
399,18	16328,45
399,39	16603,57
399,60	18185,28
399,80	18816,05
400,01	19015,39
400,21	20812,14
400,42	20072,14
400,62	20777,33
400,83	21362,36
401,04	19782,70
401,24	20810,78
401,45	20025,72
401,65	21214,23
401,86	21345,30
402,06	21710,52
402,27	22120,11
402,48	21969,93
402,68	22107,14
402,89	22212,95
403,09	22010,89
403,30	22623,91
403,50	21705,06
403,71	20872,90
403,91	22338,56
404,12	20796,44
404,33	20627,14
404,53	22643,71
404,74	21468,17
404,94	21688,67
405,15	21405,37
405,35	20932,97
405,56	21561,70
405,76	20916,59
405,97	20664,00
406,18	21850,46
406,38	21100,22
406,59	21232,66
406,79	20184,78
407,00	21130,26
407,20	20420,98
407,41	20018,89
407,61	20682,44
407,82	20715,89
408,02	20780,74
408,23	21231,97
408,43	21031,96
408,64	21261,33
408,85	21587,64
409,05	22576,81
409,26	21933,75
409,46	22176,09
409,67	22916,09
409,87	23090,16
410,08	23398,73
410,28	22810,28
410,49	22490,79
410,69	21087,93
410,90	20060,54
411,10	22112,60
411,31	19450,24
411,51	20948,67
411,72	21690,72
411,92	22634,15
412,13	22536,53
412,33	23393,26
412,54	23876,58
412,74	23849,96
412,95	23399,41
413,15	23510,00
413,36	23955,09
413,56	23307,93
413,77	23294,96
413,97	24082,75
414,18	21927,60
414,38	23324,32
414,59	24283,45
414,79	24247,95
415,00	23700,46
415,20	24270,48
415,41	22635,52
415,61	23699,78
415,82	23217,14
416,02	24316,90
416,23	22877,86
416,43	23950,99
416,64	23235,57
416,84	25145,64
417,05	24346,94
417,25	24508,72
417,46	24123,02
417,66	23971,47
417,87	23516,14
418,07	23564,61
418,28	23147,51
418,48	24554,46
418,69	22530,39
418,89	22439,59
419,10	22048,43
419,30	22393,86
419,51	23100,40
419,71	23051,25
419,92	22124,21
420,12	23009,61
420,32	23344,11
420,53	23397,36
420,73	22408,19
420,94	23914,81
421,14	22022,49
421,35	23592,60
421,55	23131,12
421,76	24287,54
421,96	23681,35
422,17	25486,29
422,37	23476,55
422,58	23786,47
422,78	23506,59
422,98	24126,44
423,19	22436,18
423,39	21586,27
423,60	21533,71
423,80	22027,95
424,01	21661,37
424,21	22449,15
424,42	22922,23
424,62	23475,18
424,82	22113,28
425,03	22583,63
425,23	23232,16
425,44	23103,14
425,64	23261,51
425,85	22756,35
426,05	22150,15
426,26	22036,14
426,46	23643,12
426,66	22459,39
426,87	22968,65
427,07	23918,91
427,28	23372,78
427,48	23005,52
427,69	22754,30
427,89	23045,11
428,09	22279,17
428,30	22052,53
428,50	22207,49
428,71	23179,59
428,91	21958,32
429,12	24125,75
429,32	22441,64
429,52	22347,44
429,73	22174,72
429,93	22924,28
430,14	20630,55
430,34	22425,26
430,54	20885,19
430,75	19359,45
430,95	18699,32
431,16	17054,12
431,36	16600,83
431,56	17750,43
431,77	17635,74
431,97	19945,85
432,18	19457,75
432,38	21206,03
432,59	22813,01
432,79	23403,50
432,99	23415,11
433,20	24146,23
433,40	24751,75
433,61	24129,85
433,81	23877,27
434,01	25824,89
434,22	24876,68
434,42	24699,19
434,62	24267,75
434,83	24063,63
435,03	21194,43
435,24	22693,54
435,44	23079,93
435,64	24409,74
435,85	23875,90
436,05	26151,88
436,26	25806,45
436,46	24828,21
436,66	25628,28
436,87	26872,08
437,07	26097,27
437,27	28610,12
437,48	27999,83
437,68	25614,63
437,89	26616,77
438,09	26649,53
438,29	27711,07
438,50	25959,37
438,70	26158,02
438,90	24486,20
439,11	23829,48
439,31	25755,94
439,51	24708,74
439,72	24852,10
439,92	25090,35
440,13	26260,42
440,33	24994,09
440,53	26358,72
440,74	25872,67
440,94	26139,59
441,14	26394,22
441,35	26528,02
441,55	25120,38
441,75	25829,66
441,96	26687,08
442,16	28540,49
442,36	28442,19
442,57	28343,89
442,77	28314,53
442,97	29133,72
443,18	28519,33
443,38	30363,87
443,58	30379,57
443,79	28496,80
443,99	29469,59
444,20	28163,67
444,40	27751,34
444,60	29410,20
444,81	28434,00
445,01	28118,61
445,21	29935,84
445,42	29355,58
445,62	30346,80
445,82	28646,30
446,02	28928,92
446,23	27990,95
446,43	27679,66
446,63	26604,48
446,84	28435,36
447,04	25962,78
447,24	27956,82
447,45	28763,04
447,65	29632,06
447,85	27872,85
448,06	29967,93
448,26	30484,01
448,46	32252,78
448,67	29051,80
448,87	28865,44
449,07	29525,57
449,28	30104,46
449,48	30841,04
449,68	29090,03
449,88	29432,04
450,09	29881,23
450,29	30217,78
450,49	29367,19
450,70	29293,46
450,90	30931,15
451,10	31047,21
451,31	31927,83
451,51	31545,55
451,71	31735,32
451,91	31860,93
452,12	29336,47
452,32	32678,75
452,52	29918,78
452,73	30544,77
452,93	29522,83
453,13	29943,35
453,33	28982,17
453,54	29442,28
453,74	30234,16
453,94	26091,12
454,15	28404,64
454,35	28649,72
454,55	28583,50
454,75	31264,29
454,96	30270,34
455,16	29754,94
455,36	28617,63
455,57	30039,61
455,77	29803,41
455,97	28658,59
456,17	29959,05
456,38	31553,74
456,58	29589,05
456,78	29685,99
456,98	31710,75
457,19	31527,80
457,39	30637,61
457,59	32099,86
457,79	30638,30
458,00	33132,04
458,20	32007,02
458,40	31448,61
458,60	31010,34
458,81	31344,84
459,01	31464,99
459,21	29654,59
459,41	31329,83
459,62	30970,75
459,82	31093,63
460,02	31750,34
460,22	31334,60
460,43	31645,90
460,63	32056,85
460,83	30079,20
461,03	31295,69
461,24	32194,75
461,44	32819,38
461,64	32088,94
461,84	33447,43
462,05	34644,80
462,25	32226,84
462,45	33295,88
462,65	34590,87
462,86	31388,53
463,06	32652,13
463,26	32339,47
463,46	33252,87
463,66	33777,15
463,87	32041,84
464,07	33525,93
464,27	33015,99
464,47	33993,55
464,68	33504,09
464,88	32413,20
465,08	32540,18
465,28	32179,05
465,48	32620,05
465,69	33461,08
465,89	32605,71
466,09	33108,15
466,29	32742,24
466,49	32841,23
466,70	35585,51
466,90	33666,56
467,10	33633,79
467,30	34526,02
467,50	32978,44
467,71	33351,17
467,91	34002,43
468,11	33714,34
468,31	32607,08
468,51	34570,40
468,72	34930,16
468,92	35431,91
469,12	34780,65
469,32	36199,21
469,52	35053,72
469,73	36339,16
469,93	35011,39
470,13	36318,68
470,33	34731,50
470,53	36911,91
470,74	36872,99
470,94	35302,89
471,14	35869,49
471,34	37169,27
471,54	36247,68
471,74	36133,68
471,95	37500,36
472,15	38912,77
472,35	36845,01
472,55	38510,69
472,75	40134,04
472,95	39944,27
473,16	39783,84
473,36	40566,16
473,56	40426,90
473,76	42058,45
473,96	39765,41
474,16	40848,10
474,37	39802,27
474,57	40151,79
474,77	42726,09
474,97	42080,30
475,17	40773,69
475,37	42902,21
475,58	43400,55
475,78	43031,24
475,98	42554,74
476,18	44407,47
476,38	42552,01
476,58	42942,49
476,78	43081,07
476,99	45439,65
477,19	43732,32
477,39	44144,65
477,59	44107,10
477,79	44496,90
477,99	46082,71
478,19	47282,82
478,40	46586,51
478,60	46501,86
478,80	46595,38
479,00	47449,39
479,20	47234,35
479,40	47034,33
479,60	45342,71
479,81	48072,65
480,01	47294,42
480,21	48209,18
480,41	48996,29
480,61	50241,45
480,81	51012,85
481,01	49247,50
481,21	49403,83
481,42	49642,76
481,62	50031,19
481,82	51109,11
482,02	51161,67
482,22	51285,23
482,42	50866,08
482,62	53325,01
482,82	52605,49
483,02	51731,69
483,23	51976,76
483,43	52696,97
483,63	52042,98
483,83	52056,64
484,03	52592,52
484,23	51711,89
484,43	52301,71
484,63	52863,53
484,83	51245,64
485,04	52596,62
485,24	51343,94
485,44	52059,37
485,64	52337,21
485,84	51989,73
486,04	50830,58
486,24	49285,05
486,44	47374,98
486,64	46117,53
486,84	45849,92
487,04	45406,20
487,25	45475,83
487,45	46249,96
487,65	46731,23
487,85	49510,33
488,05	49453,67
488,25	50758,91
488,45	50797,82
488,65	52447,11
488,85	51961,06
489,05	53002,80
489,25	51715,31
489,45	52393,18
489,65	52074,38
489,86	52811,65
490,06	52698,33
490,26	53813,79
490,46	54590,66
490,66	55319,73
490,86	54990,01
491,06	56059,05
491,26	55758,68
491,46	56322,55
491,66	55557,98
491,86	55066,47
492,06	54545,60
492,26	53560,53
492,46	53846,56
492,66	52901,76
492,86	52924,97
493,06	53474,51
493,27	54142,83
493,47	54323,74
493,67	53805,60
493,87	55491,08
494,07	54547,65
494,27	54349,68
494,47	54908,09
494,67	55065,78
494,87	55691,78
495,07	55953,24
495,27	56509,60
495,47	58199,18
495,67	57324,69
495,87	57697,42
496,07	56237,22
496,27	56501,41
496,47	56514,38
496,67	56831,82
496,87	56759,45
497,07	56803,14
497,27	56214,01
497,47	57358,83
497,67	56637,26
497,87	57081,67
498,07	57293,29
498,27	57007,94
498,47	56093,86
498,67	55668,57
498,87	54597,48
499,07	55249,42
499,27	54355,82
499,47	55477,43
499,67	55571,63
499,87	56893,25
500,07	55609,18
500,27	55831,04
500,47	55594,16
500,67	55707,48
500,87	54060,23
501,07	54350,36
501,27	54028,15
501,47	53979,68
501,67	53543,46
501,87	54098,46
502,07	53396,69
502,27	53787,85
502,47	52612,32
502,67	54236,36
502,87	54211,78
503,07	54508,74
503,27	54680,77
503,47	55314,27
503,67	55248,74
503,87	55002,98
504,07	55002,98
504,27	54653,46
504,47	55016,63
504,67	54195,40
504,87	54264,35
505,07	54650,73
505,27	55271,95
505,47	55187,30
505,67	56063,14
505,87	56104,79
506,07	56760,14
506,27	57205,23
506,47	57073,48
506,67	57580,69
506,87	58051,72
507,07	57954,78
507,27	57673,53
507,47	57364,29
507,67	57386,81
507,87	56618,83
508,07	56982,68
508,27	56493,90
508,47	55868,59
508,67	55962,79
508,87	56054,27
509,06	56567,63
509,26	56419,49
509,46	58010,76
509,66	57939,08
509,86	57998,48
510,06	57987,55
510,26	58261,30
510,46	57253,70
510,66	57588,20
510,86	57154,03
511,06	57702,20
511,26	58046,94
511,46	58221,70
511,66	57682,41
511,86	58966,48
512,06	59037,48
512,26	59513,29
512,45	59327,61
512,65	58971,94
512,85	58411,48
513,05	58276,32
513,25	57655,78
513,45	57629,84
513,65	57886,52
513,85	56999,07
514,05	57352,00
514,25	57235,95
514,45	56714,40
514,65	56884,38
514,85	56312,31
515,04	56293,88
515,24	55901,36
515,44	56504,14
515,64	56736,93
515,84	57601,17
516,04	57376,58
516,24	58081,08
516,44	57343,12
516,64	57256,43
516,84	56837,96
517,04	54871,23
517,23	53028,05
517,43	52017,04
517,63	50416,89
517,83	50966,43
518,03	51878,46
518,23	52824,62
518,43	52349,49
518,63	53034,88
518,83	52847,83
519,02	53023,28
519,22	52721,54
519,42	53000,75
519,62	53912,78
519,82	54645,27
520,02	55160,67
520,22	55921,83
520,42	56614,73
520,62	57342,44
520,81	57093,96
521,01	56920,56
521,21	56799,73
521,41	57156,76
521,61	57562,26
521,81	57723,36
522,01	57497,41
522,21	57902,90
522,40	57912,46
522,60	58708,44
522,80	57794,36
523,00	57707,66
523,20	57157,44
523,40	56949,23
523,60	56753,31
523,79	56700,75
523,99	56626,34
524,19	57717,90
524,39	57624,38
524,59	58998,57
524,79	58755,54
524,99	57905,63
525,18	59457,99
525,38	59017,00
525,58	58589,66
525,78	59067,51
525,98	58657,24
526,18	59495,54
526,37	57726,10
526,57	57741,11
526,77	56293,88
526,97	55206,41
527,17	53835,64
527,37	54053,40
527,56	52075,07
527,76	53241,04
527,96	53397,37
528,16	54047,94
528,36	54389,95
528,56	55785,30
528,75	55945,73
528,95	56638,62
529,15	57410,03
529,35	57495,36
529,55	57997,11
529,75	58541,19
529,94	58238,09
530,14	58091,32
530,34	57253,01
530,54	57879,01
530,74	57050,27
530,93	57412,07
531,13	58018,95
531,33	58413,53
531,53	57935,67
531,73	58804,01
531,93	58173,24
532,12	59055,23
532,32	57819,62
532,52	57825,76
532,72	56930,12
532,92	55891,12
533,11	55363,42
533,31	54724,46
533,51	54466,41
533,71	54811,84
533,91	54749,71
534,10	55088,99
534,30	55485,62
534,50	55325,19
534,70	55197,54
534,89	55063,74
535,09	55057,59
535,29	56093,86
535,49	56289,10
535,69	55527,26
535,88	56297,98
536,08	56654,32
536,28	56576,50
536,48	57208,64
536,68	56101,37
536,87	56646,13
537,07	55623,51
537,27	54565,40
537,47	54197,45
537,66	55109,47
537,86	53849,29
538,06	54387,91
538,26	54655,51
538,45	54778,39
538,65	55082,17
538,85	55630,34
539,05	54643,90
539,24	54967,48
539,44	54485,53
539,64	54686,91
539,84	53515,47
540,03	53367,33
540,23	53494,31
540,43	52626,65
540,63	52117,39
540,82	52088,72
541,02	51489,35
541,22	51744,66
541,42	51009,44
541,61	51161,67
541,81	51961,75
542,01	51645,68
542,21	52062,10
542,40	52828,04
542,60	52106,47
542,80	52505,14
543,00	52155,62
543,19	52233,44
543,39	52088,72
543,59	51870,27
543,79	51300,93
543,98	52294,20
544,18	52331,75
544,38	51931,71
544,57	52815,75
544,77	52350,18
544,97	52014,31
545,17	52583,65
545,36	51935,80
545,56	52625,29
545,76	52399,33
545,96	52066,87
546,15	52322,19
546,35	52111,93
546,55	51735,10
546,74	51555,57
546,94	51515,97
547,14	52273,04
547,33	51377,39
547,53	52198,63
547,73	51511,88
547,93	51822,48
548,12	50967,80
548,32	51573,31
548,52	50939,81
548,71	50989,64
548,91	51087,95
549,11	51618,37
549,30	51358,96
549,50	51763,78
549,70	51859,35
549,90	51880,51
550,09	51398,55
550,29	51601,99
550,49	50970,53
550,68	51776,06
550,88	51162,36
551,08	51876,41
551,27	50541,82
551,47	51083,85
551,67	51145,97
551,86	51323,46
552,06	50519,29
552,26	51300,25
552,45	51199,90
552,65	51462,72
552,85	50819,66
553,04	51499,59
553,24	50534,31
553,44	50842,19
553,63	50733,65
553,83	50781,43
554,03	49962,25
554,22	50681,77
554,42	50583,46
554,62	50567,76
554,81	50550,70
555,01	51158,94
555,21	50770,51
555,40	51003,30
555,60	50745,94
555,80	51442,93
555,99	50732,96
556,19	50698,83
556,39	50597,80
556,58	50383,44
556,78	50322,69
556,97	49967,71
557,17	50122,67
557,37	49766,32
557,56	49369,70
557,76	49399,74
557,96	49011,99
558,15	49226,34
558,35	48822,21
558,55	49342,39
558,74	49132,14
558,94	49014,04
559,13	48760,09
559,33	48424,22
559,53	47756,58
559,72	48173,69
559,92	48084,94
560,12	47669,20
560,31	48154,57
560,51	48617,41
560,70	47822,80
560,90	48917,78
561,10	48635,84
561,29	49053,63
561,49	48883,65
561,68	49066,60
561,88	48887,06
562,08	48728,00
562,27	48329,33
562,47	48590,11
562,66	48216,69
562,86	49080,25
563,06	48426,95
563,25	49065,24
563,45	48947,14
563,64	49751,30
563,84	48835,86
564,04	49075,48
564,23	48955,33
564,43	48852,25
564,62	48369,61
564,82	48820,16
565,02	48502,04
565,21	49000,38
565,41	49033,83
565,60	48147,75
565,80	48764,18
566,00	47887,65
566,19	47588,65
566,39	47058,23
566,58	47422,08
566,78	47654,87
566,97	46977,67
567,17	47742,93
567,37	47763,41
567,56	48403,74
567,76	47857,62
567,95	48630,38
568,15	48721,86
568,34	48850,88
568,54	48119,76
568,74	48179,15
568,93	47749,76
569,13	47618,69
569,32	46868,45
569,52	46950,37
569,71	46761,95
569,91	47295,11
570,10	47216,60
570,30	47000,88
570,50	47232,30
570,69	46994,74
570,89	46611,09
571,08	46548,96
571,28	46033,56
571,47	45372,75
571,67	45504,50
571,86	46109,33
572,06	45841,05
572,25	46639,76
572,45	46721,68
572,65	47661,01
572,84	47127,17
573,04	47253,47
573,23	47424,13
573,43	46845,92
573,62	47889,70
573,82	47787,30
574,01	46947,64
574,21	48282,91
574,40	47159,94
574,60	47516,29
574,79	47118,30
574,99	47364,06
575,18	46943,54
575,38	46662,29
575,57	46381,03
575,77	46320,96
575,96	46081,34
576,16	46725,09
576,35	45758,45
576,55	46316,86
576,74	46579,68
576,94	46259,52
577,13	46832,27
577,33	46406,29
577,52	46441,10
577,72	46677,30
577,91	46217,88
578,11	46286,82
578,30	46286,82
578,50	46275,22
578,69	45423,95
578,89	45722,95
579,08	45497,67
579,28	45675,85
579,47	45226,66
579,67	45831,49
579,86	45458,08
580,06	46225,39
580,25	45385,04
580,45	45860,16
580,64	45894,98
580,84	46475,24
581,03	45580,96
581,23	46213,10
581,42	45568,67
581,62	46381,03
581,81	46148,25
582,01	46360,55
582,20	46005,57
582,40	46398,10
582,59	46259,52
582,78	46637,03
582,98	46496,40
583,17	46804,96
583,37	46187,16
583,56	46839,78
583,76	46350,31
583,95	46391,95
584,15	46350,31
584,34	46137,32
584,54	46443,15
584,73	46161,90
584,93	46171,46
585,12	45884,74
585,31	46204,91
585,51	45529,76
585,70	45088,08
585,90	45210,28
586,09	44478,47
586,29	44788,39
586,48	44373,34
586,68	44998,65
586,87	44477,79
587,06	44466,18
587,26	44705,11
587,45	44902,40
587,65	44533,08
587,84	44963,84
588,04	44205,41
588,23	43775,33
588,42	43815,61
588,62	43769,19
588,81	42662,60
589,01	42541,77
589,20	40841,96
589,40	40254,19
589,59	39168,08
589,78	38535,95
589,98	38041,02
590,17	38148,88
590,37	38647,22
590,56	38981,04
590,75	39563,34
590,95	39692,36
591,14	40648,08
591,34	40852,20
591,53	40433,05
591,72	40734,78
591,92	41018,77
592,11	41005,11
592,31	40347,72
592,50	41134,13
592,69	40369,56
592,89	40910,91
593,08	40949,14
593,28	41004,43
593,47	41220,83
593,66	41672,07
593,86	40713,62
594,05	41433,82
594,25	40762,09
594,44	41085,67
594,63	40233,71
594,83	40905,45
595,02	39934,03
595,21	39845,28
595,41	39998,20
595,60	40143,60
595,80	39818,66
595,99	39878,05
596,18	40125,85
596,38	40111,52
596,57	40662,42
596,76	40362,73
596,96	40186,61
597,15	40667,88
597,35	40020,72
597,54	40506,77
597,73	40124,49
597,93	40742,97
598,12	39972,25
598,31	40572,99
598,51	40039,84
598,70	40373,66
598,89	39842,55
599,09	40389,36
599,28	40179,78
599,47	40590,06
599,67	40240,54
599,86	40361,37
600,05	40930,70
600,25	40734,78
600,44	40053,49
600,63	40921,15
600,83	40028,23
601,02	40222,79
601,21	40197,53
601,41	40440,56
601,60	39739,47
601,79	40637,84
601,99	39301,89
602,18	39747,66
602,37	39957,92
602,57	39601,57
602,76	39607,72
602,95	40004,34
603,15	39929,93
603,34	40126,53
603,53	39952,46
603,73	40454,89
603,92	40527,94
604,11	40234,39
604,31	40642,62
604,50	40441,92
604,69	40309,49
604,89	40650,81
605,08	40371,61
605,27	40567,53
605,46	40033,69
605,66	40727,27
605,85	40146,33
606,04	41119,12
606,24	40194,80
606,43	40580,50
606,62	40417,35
606,82	40097,18
607,01	39878,05
607,20	39867,12
607,39	39592,70
607,59	39716,26
607,78	39621,37
607,97	38901,17
608,17	38841,09
608,36	39337,38
608,55	38486,79
608,74	38641,76
608,94	38631,52
609,13	39095,72
609,32	38189,84
609,52	38751,66
609,71	38124,30
609,90	38049,21
610,09	38157,75
610,29	38286,78
610,48	37735,19
610,67	38002,79
610,86	37545,41
611,06	37480,56
611,25	37277,81
611,44	37378,16
611,64	37321,50
611,83	37685,36
612,02	37305,12
612,21	37976,17
612,41	37574,08
612,60	37634,16
612,79	37401,37
612,98	37393,18
613,18	38031,46
613,37	38313,40
613,56	37793,90
613,75	38384,40
613,95	37958,42
614,14	38335,24
614,33	37690,82
614,52	37979,58
614,71	37772,05
614,91	38200,76
615,10	38144,10
615,29	38498,40
615,48	37995,96
615,68	38537,99
615,87	38011,67
616,06	38010,30
616,25	37605,48
616,45	37947,50
616,64	37506,50
616,83	37413,66
617,02	37074,38
617,21	37601,39
617,41	37453,25
617,60	37335,84
617,79	37574,77
617,98	38308,62
618,18	37709,25
618,37	38801,50
618,56	38460,17
618,75	38957,83
618,94	38856,11
619,14	38548,23
619,33	38919,60
619,52	39144,87
619,71	38834,95
619,90	38808,33
620,10	39016,54
620,29	40071,92
620,48	39615,22
620,67	39579,73
620,86	40020,72
621,06	40105,37
621,25	39987,96
621,44	39773,60
621,63	39821,39
621,82	39780,43
622,01	39676,66
622,21	39482,11
622,40	39298,47
622,59	39640,48
622,78	39510,10
622,97	39612,49
623,17	39116,89
623,36	39597,48
623,55	39176,96
623,74	39438,42
623,93	38916,18
624,12	39742,88
624,32	39112,11
624,51	39389,95
624,70	38749,62
624,89	38864,99
625,08	38939,40
625,27	38717,53
625,47	38522,97
625,66	38885,47
625,85	37826,67
626,04	38361,87
626,23	38423,31
626,42	38503,86
626,61	38627,42
626,81	38713,44
627,00	38793,99
627,19	39200,17
627,38	38848,60
627,57	39151,02
627,76	38565,30
627,95	38462,90
628,15	37552,92
628,34	37438,92
628,53	37864,21
628,72	37126,26
628,91	37681,94
629,10	37881,96
629,29	38012,35
629,49	37847,83
629,68	37845,10
629,87	37684,67
630,06	37248,46
630,25	37131,72
630,44	36937,16
630,63	37292,83
630,82	37170,63
631,01	37274,40
631,21	37367,92
631,40	37372,70
631,59	37331,74
631,78	37062,09
631,97	37176,09
632,16	36864,12
632,35	36586,28
632,54	36219,01
632,73	36496,85
632,93	36924,19
633,12	37280,54
633,31	37234,12
633,50	37088,03
633,69	37101,68
633,88	36423,81
634,07	37137,87
634,26	36604,71
634,45	36934,43
634,64	36492,76
634,84	36931,70
635,03	36582,87
635,22	36482,52
635,41	36456,57
635,60	36923,51
635,79	36579,45
635,98	36748,75
636,17	35745,25
636,36	36768,55
636,55	36238,81
636,74	35607,35
636,93	36259,97
637,12	36285,23
637,32	35769,14
637,51	35927,52
637,70	36361,00
637,89	36593,79
638,08	35986,91
638,27	36390,36
638,46	36489,34
638,65	35887,92
638,84	36152,79
639,03	35841,50
639,22	36114,56
639,41	36068,83
639,60	35550,69
639,79	35435,32
639,98	35486,52
640,17	35349,31
640,36	35187,52
640,56	35081,70
640,75	35087,17
640,94	34853,01
641,13	34725,36
641,32	34653,68
641,51	34138,96
641,70	34374,47
641,89	34037,24
642,08	34155,34
642,27	33747,11
642,46	34477,55
642,65	33747,11
642,84	34157,39
643,03	34156,02
643,22	34283,68
643,41	34074,10
643,60	34147,15
643,79	34027,68
643,98	34159,44
644,17	33818,11
644,36	34169,68
644,55	33686,36
644,74	33618,09
644,93	33898,66
645,12	33714,34
645,31	33111,56
645,50	33068,55
645,69	33304,75
645,88	32898,57
646,07	32962,74
646,26	32680,80
646,45	32454,84
646,64	32454,84
646,83	32368,15
647,02	31613,13
647,21	32347,67
647,40	31631,56
647,59	31579,00
647,78	31596,06
647,97	31284,09
648,16	31297,74
648,35	30962,56
648,54	31186,47
648,73	30787,11
648,92	31168,04
649,11	31143,46
649,30	30735,23
649,49	30154,29
649,68	30031,41
649,87	29874,40
650,06	29724,90
650,25	29778,15
650,44	29981,58
650,63	30404,14
650,82	30848,55
651,01	30733,87
651,20	30857,43
651,39	31036,97
651,58	30796,67
651,77	30503,81
651,96	30367,28
652,15	30046,43
652,33	30167,26
652,52	30083,30
652,71	30336,56
652,90	30256,01
653,09	29892,83
653,28	30742,74
653,47	30462,17
653,66	30149,51
653,85	30531,80
654,04	30322,23
654,23	30105,82
654,42	30432,13
654,61	30224,61
654,80	29978,17
654,99	29860,75
655,18	29149,42
655,37	29300,97
655,55	28939,16
655,74	28733,00
655,93	28482,47
656,12	27582,73
656,31	26570,35
656,50	25919,09
656,69	25583,23
656,88	24788,61
657,07	24788,61
657,26	25726,58
657,45	25597,56
657,64	26033,78
657,83	27070,05
658,01	27330,83
658,20	27438,69
658,39	27791,62
658,58	28346,62
658,77	28367,10
658,96	28335,70
659,15	28728,91
659,34	28394,40
659,53	28730,27
659,72	28330,92
659,90	28365,05
660,09	28569,16
660,28	28946,67
660,47	28494,75
660,66	28806,05
660,85	28902,30
661,04	28747,34
661,23	28329,55
661,42	28883,19
661,60	28585,55
661,79	28816,29
661,98	28781,47
662,17	29116,65
662,36	28864,07
662,55	28532,98
662,74	28952,13
662,93	28672,25
663,11	28550,05
663,30	28653,81
663,49	28111,78
663,68	28401,91
663,87	27988,22
664,06	28096,08
664,25	27976,62
664,44	27971,84
664,62	28149,33
664,81	28044,88
665,00	27678,98
665,19	27909,72
665,38	28242,85
665,57	28268,11
665,76	28186,19
665,94	28091,99
666,13	28075,60
666,32	28012,12
666,51	27875,59
666,70	28023,04
666,89	27407,97
667,07	27678,98
667,26	27730,86
667,45	27771,14
667,64	27379,98
667,83	27514,46
668,02	27542,45
668,20	27086,43
668,39	26905,53
668,58	27244,81
668,77	27029,77
668,96	27084,39
669,15	27245,49
669,33	27238,67
669,52	26893,93
669,71	27145,83
669,90	26943,08
670,09	26944,44
670,27	26965,60
670,46	26646,80
670,65	26604,48
670,84	26827,71
671,03	26523,24
671,22	26478,19
671,40	26548,50
671,59	26269,98
671,78	26344,39
671,97	26364,87
672,16	26201,71
672,34	25871,99
672,53	25910,22
672,72	26029,68
672,91	25676,75
673,09	25930,70
673,28	25882,91
673,47	25994,18
673,66	25498,58
673,85	25908,17
674,03	25748,43
674,22	25952,54
674,41	25648,76
674,60	25701,33
674,79	25476,05
674,97	25392,76
675,16	25532,71
675,35	25332,01
675,54	25496,53
675,72	25482,19
675,91	25244,63
676,10	25121,75
676,29	25294,46
676,47	25337,47
676,66	25177,05
676,85	25379,79
677,04	25078,74
677,23	25117,65
677,41	24998,19
677,60	25094,44
677,79	24756,53
677,98	25184,55
678,16	24854,15
678,35	25113,56
678,54	25009,79
678,73	25263,74
678,91	24685,53
679,10	24569,48
679,29	24539,44
679,48	24467,08
679,66	24479,37
679,85	24713,52
680,04	24290,27
680,22	24526,47
680,41	24462,99
680,60	24640,48
680,79	24194,02
680,97	24511,46
681,16	24057,49
681,35	24252,73
681,54	24043,15
681,72	24261,60
681,91	23868,39
682,10	24052,03
682,28	23935,98
682,47	23946,22
682,66	23827,43
682,85	23999,46
683,03	23897,75
683,22	23904,57
683,41	23793,30
683,59	23602,16
683,78	23711,38
683,97	23417,84
684,16	23237,62
684,34	23407,60
684,53	23286,09
684,72	23342,07
684,90	23184,37
685,09	22871,72
685,28	22883,32
685,46	23169,35
685,65	22818,47
685,84	23104,50
686,03	22584,32
686,21	22937,25
686,40	22394,54
686,59	22660,77
686,77	22019,76
686,96	21031,96
687,15	20189,56
687,33	19160,80
687,52	18046,02
687,71	17327,18
687,89	16946,94
688,08	17314,89
688,27	17746,33
688,45	18117,70
688,64	18181,18
688,83	18753,93
689,01	18564,84
689,20	18781,24
689,39	18505,45
689,57	18768,27
689,76	18631,74
689,95	18795,57
690,13	18703,42
690,32	18994,91
690,51	18955,32
690,69	19276,85
690,88	19018,12
691,07	19316,44
691,25	19628,42
691,44	19658,45
691,62	19625,00
691,81	19790,89
692,00	19614,76
692,18	19608,62
692,37	19674,15
692,56	19896,70
692,74	20082,38
692,93	19882,36
693,12	19969,74
693,30	19639,34
693,49	19474,13
693,67	19591,55
693,86	19485,74
694,05	19381,98
694,23	19069,32
694,42	19219,50
694,61	18910,94
694,79	18929,38
694,98	18957,36
695,16	19005,15
695,35	18993,54
695,54	19118,47
695,72	19049,52
695,91	19308,93
696,09	18923,91
696,28	19219,50
696,47	19559,47
696,65	19232,47
696,84	19586,77
697,02	19814,78
697,21	19954,72
697,40	20283,77
697,58	20184,78
697,77	20039,37
697,95	20260,55
698,14	19881,00
698,33	19990,22
698,51	20210,72
698,70	19807,27
698,88	19790,20
699,07	19673,47
699,25	19525,33
699,44	19317,81
699,63	19160,11
699,81	19140,32
700,00	19240,67
700,18	19086,39
700,37	19191,52
700,55	19136,90
700,74	18864,52
700,93	18769,63
701,11	18706,15
701,30	18753,25
701,48	19125,98
701,67	18747,79
701,85	18738,91
702,04	18822,88
702,23	18510,91
702,41	18506,81
702,60	18536,85
702,78	18194,84
702,97	18359,36
703,15	18382,57
703,34	18611,26
703,52	18807,86
703,71	18762,81
703,89	18765,54
704,08	18838,58
704,27	19258,42
704,45	19003,10
704,64	18903,43
704,82	18900,02
705,01	19220,19
705,19	19394,26
705,38	19145,09
705,56	18955,32
705,75	18948,49
705,93	18912,99
706,12	19181,28
706,30	18747,11
706,49	18850,19
706,67	19038,60
706,86	18750,52
707,04	18993,54
707,23	18908,90
707,41	19121,20
707,60	19025,63
707,78	19216,77
707,97	18932,11
708,15	19045,43
708,34	19246,13
708,52	19081,61
708,71	19095,26
708,89	18947,81
709,08	18704,10
709,26	19014,02
709,45	18900,70
709,63	18872,71
709,82	18719,12
710,00	18768,95
710,19	19059,08
710,37	18852,92
710,56	18675,43
710,74	18700,69
710,93	18533,43
711,11	18955,32
711,30	18552,55
711,48	18912,99
711,67	18647,44
711,85	18802,40
712,04	18482,92
712,22	18743,69
712,41	18558,69
712,59	18738,91
712,78	18814,01
712,96	18248,08
713,14	18544,36
713,33	18444,69
713,51	18508,86
713,70	18368,91
713,88	18317,03
714,07	18338,19
714,25	18342,97
714,44	18566,88
714,62	18209,17
714,81	18116,33
714,99	17965,46
715,17	17950,45
715,36	17666,46
715,54	17680,11
715,73	17913,58
715,91	17308,75
716,10	17593,42
716,28	17553,82
716,47	17300,56
716,65	17165,39
716,83	16476,59
717,02	16174,17
717,20	15468,31
717,39	15152,92
717,57	14584,27
717,76	14185,60
717,94	13729,58
718,12	13446,96
718,31	13207,35
718,49	13077,65
718,68	12795,03
718,86	12528,79
719,04	12372,46
719,23	12173,13
719,41	11908,26
719,60	12001,10
719,78	11977,20
719,97	11821,56
720,15	11708,24
720,33	11725,99
720,52	11730,77
720,70	11585,36
720,89	11823,61
721,07	12046,83
721,25	12603,88
721,44	12980,71
721,62	13339,79
721,80	13883,86
721,99	14281,17
722,17	14559,01
722,36	14840,95
722,54	14978,16
722,72	14746,06
722,91	14933,11
723,09	14728,31
723,28	14538,53
723,46	14305,74
723,64	14153,51
723,83	13637,42
724,01	13187,55
724,19	12874,21
724,38	12887,87
724,56	12863,29
724,74	12754,75
724,93	12592,96
725,11	12520,60
725,30	12393,62
725,48	12436,63
725,66	12703,55
725,85	12390,21
726,03	12466,67
726,21	12498,75
726,40	12494,66
726,58	12551,32
726,76	12392,26
726,95	12740,41
727,13	12642,11
727,31	12909,03
727,50	12579,99
727,68	12599,10
727,86	12307,61
728,05	12422,30
728,23	12202,48
728,41	12189,51
728,60	12601,83
728,78	12579,31
728,96	12764,99
729,15	12638,70
729,33	12326,72
729,51	12268,02
729,70	12084,38
729,88	12502,17
730,06	12436,63
730,25	12522,65
730,43	12336,28
730,61	12500,12
730,80	12414,10
730,98	12438,68
731,16	12369,05
731,35	12356,08
731,53	12467,35
731,71	12610,03
731,89	12487,15
732,08	12534,93
732,26	12816,19
732,44	12924,73
732,63	12977,30
732,81	13375,28
732,99	13281,76
733,18	13773,27
733,36	13767,81
733,54	13630,60
733,72	13797,85
733,91	13844,95
734,09	13984,90
734,27	14449,78
734,46	14483,24
734,64	14531,70
734,82	14317,35
735,00	14539,21
735,19	14129,62
735,37	14264,10
735,55	14092,76
735,73	13984,21
735,92	14296,19
736,10	14154,19
736,28	13877,72
736,46	13900,93
736,65	13639,47
736,83	13722,07
737,01	13909,12
737,20	13929,60
737,38	13686,58
737,56	13928,24
737,74	13933,01
737,93	13952,81
738,11	13982,17
738,29	14049,75
738,47	13984,90
738,66	13556,87
738,84	13961,69
739,02	13750,06
739,20	13754,84
739,38	13680,43
739,57	13383,48
739,75	13509,08
739,93	13616,26
740,11	13614,21
740,30	13788,29
740,48	13662,68
740,66	13750,06
740,84	13798,53
741,03	13678,38
741,21	13991,04
741,39	13444,23
741,57	13744,60
741,75	13528,20
741,94	13532,29
742,12	13423,07
742,30	13429,21
742,48	13344,56
742,66	13562,33
742,85	13469,49
743,03	13332,28
743,21	13536,39
743,39	13427,17
743,57	13695,45
743,76	13689,31
743,94	13526,83
744,12	13606,02
744,30	13395,76
744,48	13591,00
744,67	13454,47
744,85	13167,76
745,03	13167,07
745,21	13208,72
745,39	13274,93
745,58	13099,49
745,76	13227,15
745,94	13158,88
746,12	13228,51
746,30	13201,21
746,48	13007,33
746,67	13233,29
746,85	13240,12
747,03	12878,99
747,21	12843,49
747,39	12857,15
747,57	12837,35
747,76	12792,30
747,94	12727,44
748,12	12734,95
748,30	12689,21
748,48	12700,82
748,66	12662,59
748,85	12573,16
749,03	12648,26
749,21	12595,69
749,39	12409,33
749,57	12289,86
749,75	12384,75
749,93	12091,21
750,12	12089,16
750,30	12077,55
750,48	12107,59
750,66	12209,31
750,84	12084,38
751,02	12075,51
751,20	12041,37
751,39	11905,52
751,57	11900,06
751,75	11973,11
751,93	11823,61
752,11	11977,89
752,29	11878,90
752,47	11860,47
752,65	11693,90
752,84	11787,43
753,02	11787,43
753,20	11816,78
753,38	11844,09
753,56	11904,16
753,74	11762,85
753,92	11972,43
754,10	11801,08
754,28	11880,27
754,46	11907,57
754,65	11799,03
754,83	11945,80
755,01	11893,92
755,19	11702,78
755,37	11836,58
755,55	11734,18
755,73	11737,59
755,91	11658,40
756,09	11562,83
756,27	11797,67
756,46	11865,25
756,64	11734,86
756,82	11745,10
757,00	11820,19
757,18	11533,48
757,36	11722,57
757,54	11855,01
757,72	11796,98
757,90	11865,93
758,08	11861,15
758,26	11718,48
758,44	11840,67
758,62	11766,26
758,80	11716,43
758,99	11607,89
759,17	11493,20
759,35	10999,64
759,53	10565,47
759,71	9752,43
759,89	8575,53
760,07	7369,96
760,25	6049,02
760,43	4968,37
760,61	4160,79
760,79	3549,13
760,97	2882,86
761,15	2711,51
761,33	2623,45
761,51	2892,41
761,69	3233,74
761,87	3738,91
762,05	4369,68
762,23	4994,31
762,41	5322,67
762,59	5393,67
762,77	5451,69
762,95	5114,46
763,13	4903,52
763,31	4637,28
763,50	4593,59
763,68	4497,34
763,86	4556,05
764,04	4627,04
764,22	4805,90
764,40	4951,99
764,58	5171,80
764,76	5346,56
764,94	5686,53
765,12	5880,40
765,30	6129,57
765,48	6456,56
765,66	6685,25
765,84	6993,13
766,02	7423,20
766,20	7768,63
766,38	7904,48
766,56	8060,81
766,74	8282,67
766,92	8596,01
767,10	8905,25
767,28	9194,70
767,46	9486,19
767,64	9707,37
767,82	9791,34
767,99	10179,09
768,17	10234,38
768,35	10270,56
768,53	10380,47
768,71	10477,41
768,89	10708,83
769,07	10712,24
769,25	10808,50
769,43	11007,83
769,61	10934,79
769,79	10881,54
769,97	11081,56
770,15	10946,39
770,33	11092,48
770,51	11183,27
770,69	11233,79
770,87	11403,09
771,05	11390,80
771,23	11191,47
771,41	11199,66
771,59	11160,06
771,77	11192,15
771,95	10967,56
772,13	11087,02
772,31	10985,99
772,48	11072,00
772,66	11136,85
772,84	11120,47
773,02	11199,66
773,20	10993,50
773,38	11241,30
773,56	11031,72
773,74	11043,33
773,92	10971,65
774,10	11015,34
774,28	11088,39
774,46	10839,22
774,64	10809,86
774,81	10739,55
774,99	10753,88
775,17	10658,31
775,35	10514,95
775,53	10652,17
775,71	10661,73
775,89	10576,39
776,07	10747,74
776,25	10654,22
776,43	10547,04
776,61	10555,91
776,78	10624,86
776,96	10663,77
777,14	10411,19
777,32	10645,34
777,50	10497,89
777,68	10413,24
777,86	10385,93
778,04	10430,99
778,22	10137,45
778,39	10122,43
778,57	10073,28
778,75	10035,05
778,93	10020,71
779,11	10076,69
779,29	10138,81
779,47	10039,83
779,65	9959,27
779,82	10050,75
780,00	9916,95
780,18	9880,77
780,36	9795,43
780,54	10013,88
780,72	9714,88
780,90	9712,15
781,08	9689,62
781,25	9780,42
781,43	9709,42
781,61	9718,29
781,79	9613,85
781,97	9632,96
782,15	9478,00
782,32	9678,70
782,50	9621,36
782,68	9679,38
782,86	9352,39
783,04	9391,98
783,22	9538,76
783,39	9257,50
783,57	9351,71
783,75	9144,86
783,93	9234,97
784,11	9220,64
784,29	9098,44
784,46	9024,72
784,64	9104,59
784,82	9265,01
785,00	9142,13
785,18	9019,94
785,36	8897,74
785,53	8872,48
785,71	8824,70
785,89	8950,99
786,07	8994,00
786,25	8970,79
786,42	8871,80
786,60	8777,59
786,78	8649,94
786,96	8656,76
787,14	8614,44
787,31	8525,69
787,49	8522,28
787,67	8427,39
787,85	8321,58
788,03	8274,48
788,20	8346,16
788,38	8185,05
788,56	8279,94
788,74	8182,32
788,92	8183,00
789,09	8089,48
789,27	8090,84
789,45	7922,23
789,63	7899,02
789,80	7734,50
789,98	7741,32
790,16	7654,62
790,34	7735,18
790,52	7746,10
790,69	7718,79
790,87	7629,37
791,05	7610,25
791,23	7593,87
791,40	7641,65
791,58	7582,95
791,76	7477,13
791,94	7412,28
792,11	7430,71
792,29	7445,05
792,47	7392,48
792,65	7439,59
792,82	7406,82
793,00	7304,42
793,18	7373,37
793,36	7237,52
793,53	7273,02
793,71	7139,22
793,89	7217,72
794,07	7253,91
794,24	7346,75
794,42	7200,66
794,60	7264,83
794,78	7144,00
794,95	7158,33
795,13	7094,16
795,31	7183,59
795,48	7143,32
795,66	7113,28
795,84	7016,34
796,02	6982,21
796,19	6903,02
796,37	6695,49
796,55	6685,94
796,72	6720,07
796,90	6568,52
797,08	6698,22
797,26	6622,45
797,43	6747,37
797,61	6828,61
797,79	6748,06
797,96	6837,49
798,14	6825,20
798,32	6853,87
798,49	6739,87
798,67	6737,82
798,85	6655,90
799,02	6725,53
799,20	6727,58
799,38	6636,10
799,56	6607,43
799,73	6598,56
799,91	6557,60
800,09	6395,81
800,26	6351,43
800,44	6360,99
800,62	6304,33
800,79	6225,14
800,97	6234,02
801,15	6363,04
801,32	6285,90
801,50	6113,87
801,68	6122,06
801,85	6190,33
802,03	6053,11
802,21	6100,90
802,38	6235,38
802,56	6031,27
802,74	5981,43
802,91	5935,01
803,09	5960,95
803,26	5814,18
803,44	6020,35
803,62	6023,08
803,79	5876,99
803,97	5989,63
804,15	6010,11
804,32	5996,45
804,50	5781,42
804,68	5899,52
804,85	5868,11
805,03	5840,12
805,20	5782,78
805,38	5740,46
805,56	5887,91
805,73	5799,85
805,91	5723,39
806,09	5899,52
806,26	5905,66
806,44	5977,34
806,61	5815,55
806,79	5797,12
806,97	5719,29
807,14	5730,22
807,32	5854,46
807,49	5649,66
807,67	5565,70
807,85	5768,45
808,02	5625,77
808,20	5735,68
808,37	5743,19
808,55	5556,82
808,73	5476,27
808,90	5453,06
809,08	5472,86
809,25	5392,30
809,43	5438,72
809,61	5274,20
809,78	5294,00
809,96	5198,43
810,13	5270,11
810,31	5130,16
810,48	5157,47
810,66	5126,75
810,84	5268,74
811,01	5065,31
811,19	5048,93
811,36	4990,90
811,54	4961,55
811,71	4887,14
811,89	4880,31
812,07	4899,42
812,24	4815,46
812,42	4719,89
812,59	4730,81
812,77	4661,86
812,94	4519,87
813,12	4478,22
813,29	4319,85
813,47	4328,72
813,65	4276,84
813,82	4174,44
814,00	4139,63
814,17	4059,07
814,35	4101,40
814,52	3978,52
814,70	3873,39
814,87	3873,39
815,05	3691,80
815,22	3765,53
815,40	3638,56
815,57	3491,79
815,75	3665,86
815,92	3495,20
816,10	3520,46
816,28	3323,85
816,45	3329,31
816,63	3164,79
816,80	3295,86
816,98	3248,76
817,15	3281,53
817,33	3206,44
817,50	3335,46
817,68	3263,10
817,85	3254,90
818,03	3248,08
818,20	3183,23
818,38	3215,99
818,55	3116,33
818,73	3135,44
818,90	3289,72
819,08	3236,47
819,25	3215,99
819,43	3245,35
819,60	3240,57
819,78	3163,43
819,95	3075,37
820,12	3217,36
820,30	3255,59
820,47	3342,29
820,65	3449,46
820,82	3598,96
821,00	3577,80
821,17	3671,33
821,35	3674,06
821,52	3556,64
821,70	3480,86
821,87	3600,33
822,05	3603,74
822,22	3463,80
822,40	3334,78
822,57	3293,13
822,74	3142,27
822,92	3015,29
823,09	2744,96
823,27	2609,79
823,44	2549,72
823,62	2618,67
823,79	2669,87
823,97	2834,39
824,14	2914,26
824,31	2969,55
824,49	3042,60
824,66	3223,50
824,84	3183,91
825,01	3231,69
825,19	3259,00
825,36	3278,12
825,54	3369,59
825,71	3311,57
825,88	3385,29
826,06	3216,68
826,23	3282,21
826,41	3241,25
826,58	3231,69
826,75	3297,23
826,93	3263,78
827,10	3303,37
827,28	3236,47
827,45	3262,41
827,62	3142,95
827,80	3050,79
827,97	2982,53
828,15	2927,91
828,32	2938,84
828,49	3086,97
828,67	2916,99
828,84	2947,71
829,02	2901,29
829,19	2892,41
829,36	2942,25
829,54	2840,53
829,71	2909,48
829,89	2972,29
830,06	2925,86
830,23	2850,77
830,41	2902,65
830,58	2925,86
830,75	2805,03
830,93	2886,95
831,10	2816,64
831,28	2870,57
831,45	2871,93
831,62	2834,39
831,80	2839,85
831,97	2799,57
832,14	2762,71
832,32	2790,70
832,49	2822,78
832,66	2775,68
832,84	2716,29
833,01	2822,10
833,19	2833,02
833,36	2729,94
833,53	2762,03
833,71	2747,01
833,88	2795,48
834,05	2763,39
834,23	2718,34
834,40	2714,92
834,57	2803,67
834,75	2762,03
834,92	2805,72
835,09	2798,21
835,27	2786,60
835,44	2820,74
835,61	2823,47
835,79	2865,11
835,96	2846,68
836,13	2762,71
836,31	2771,58
836,48	2746,33
836,65	2889,68
836,82	2808,45
837,00	2853,50
837,17	2706,73
837,34	2814,59
837,52	2863,74
837,69	2824,83
837,86	2739,50
838,04	2917,67
838,21	2763,39
838,38	2754,52
838,55	2767,49
838,73	2703,32
838,90	2814,59
839,07	2688,98
839,25	2725,85
839,42	2622,08
839,59	2667,14
839,76	2701,95
839,94	2693,08
840,11	2699,91
840,28	2729,26
840,46	2610,48
840,63	2775,00
840,80	2684,20
840,97	2707,41
841,15	2602,97
841,32	2629,59
841,49	2525,15
841,66	2669,19
841,84	2602,29
842,01	2545,63
842,18	2603,65
842,36	2582,49
842,53	2606,38
842,70	2510,13
842,87	2566,79
843,05	2553,82
843,22	2520,37
843,39	2507,40
843,56	2565,42
843,73	2562,01
843,91	2417,29
844,08	2457,56
844,25	2510,13
844,42	2591,36
844,60	2461,66
844,77	2363,36
844,94	2479,41
845,11	2464,39
845,29	2520,37
845,46	2427,53
845,63	2429,57
845,80	2367,45
845,97	2402,95
846,15	2331,95
846,32	2452,78
846,49	2450,05
846,66	2389,30
846,84	2409,09
847,01	2413,87
847,18	2346,97
847,35	2250,04
847,52	2263,01
847,70	2321,03
847,87	2280,75
848,04	2288,95
848,21	2296,46
848,38	2374,96
848,56	2167,43
848,73	2315,57
848,90	2227,51
849,07	2260,27
849,24	2327,18
849,41	2205,66
849,59	2222,05
849,76	2121,70
849,93	2099,85
850,10	2051,38
850,27	2069,13
850,44	2032,27
850,62	1949,67
850,79	1991,99
850,96	2083,47
851,13	1998,13
851,30	2068,45
851,47	2099,17
851,65	2035,00
851,82	1949,67
851,99	1967,42
852,16	2043,87
852,33	1950,35
852,50	1929,87
852,68	2025,44
852,85	2056,16
853,02	1985,85
853,19	2028,17
853,36	1962,64
853,53	1936,70
853,70	1921,68
853,88	1901,20
854,05	1880,72
854,22	1933,28
854,39	1737,36
854,56	1832,93
854,73	1606,29
854,90	1656,81
855,07	1641,11
855,25	1689,57
855,42	1602,88
855,59	1667,73
855,76	1751,70
855,93	1710,05
856,10	1748,28
856,27	1740,77
856,44	1763,98
856,61	1708,01
856,79	1738,04
856,96	1791,97
857,13	1789,24
857,30	1711,42
857,47	1811,09
857,64	1744,19
857,81	1763,30
857,98	1700,50
858,15	1744,19
858,32	1662,95
858,50	1757,16
858,67	1722,34
858,84	1809,72
859,01	1875,26
859,18	1733,95
859,35	1815,87
859,52	1690,94
859,69	1800,85
859,86	1710,74
860,03	1721,66
860,20	1645,88
860,37	1663,63
860,54	1720,98
860,71	1753,06
860,89	1629,50
861,06	1680,02
861,23	1665,68
861,40	1703,91
861,57	1641,11
861,74	1645,20
861,91	1713,47
862,08	1509,35
862,25	1497,07
862,42	1589,22
862,59	1608,34
862,76	1650,66
862,93	1616,53
863,10	1548,26
863,27	1572,84
863,44	1516,86
863,61	1443,14
863,78	1486,14
863,95	1502,53
864,12	1527,10
864,29	1621,99
864,46	1503,21
864,63	1632,23
864,80	1464,98
864,97	1495,02
865,14	1598,10
865,32	1427,43
865,49	1477,95
865,66	1482,05
865,83	1416,51
866,00	1474,54
866,17	1516,18
866,34	1331,18
866,51	1348,93
866,68	1353,02
866,85	1298,41
867,02	1237,66
867,19	1263,60
867,36	1258,14
867,53	1263,60
867,70	1196,70
867,86	1350,29
868,03	1275,20
868,20	1322,99
868,37	1323,67
868,54	1231,51
868,71	1366,00
868,88	1227,42
869,05	1290,90
869,22	1339,37
869,39	1290,22
869,56	1368,73
869,73	1301,14
869,90	1253,36
870,07	1287,49
870,24	1263,60
870,41	1191,92
870,58	1180,31
870,75	1257,45
870,92	1191,92
871,09	1245,85
871,26	1217,18
871,43	1290,22
871,60	1200,11
871,77	1208,98
871,94	1172,80
872,11	1116,14
872,28	1243,12
872,44	1256,77
872,61	1239,02
872,78	1169,39
872,95	1200,79
873,12	1228,10
873,29	1113,41
873,46	1219,91
873,63	1133,89
873,80	1142,08
873,97	1093,62
874,14	1070,40
874,31	1072,45
874,48	1140,04
874,64	1084,06
874,81	1155,74
874,98	1184,41
875,15	1105,22
875,32	1118,19
875,49	1125,02
875,66	1133,21
875,83	1036,95
876,00	1099,76
876,17	1053,34
876,34	1062,90
876,50	1135,26
876,67	1038,32
876,84	1118,19
877,01	1049,24
877,18	1026,71
877,35	1056,07
877,52	1031,49
877,69	977,56
877,85	1063,58
878,02	1029,45
878,19	965,28
878,36	972,79
878,53	933,87
878,70	1086,79
878,87	976,20
879,04	920,22
879,20	912,03
879,37	1005,55
879,54	998,73
879,71	962,55
879,88	894,28
880,05	966,64
880,22	876,53
880,38	938,65
880,55	912,71
880,72	948,21
880,89	976,20
881,06	907,93
881,23	876,53
881,40	904,52
881,56	741,36
881,73	870,39
881,90	819,87
882,07	787,10
882,24	886,09
882,41	832,16
882,57	785,74
882,74	816,46
882,91	906,57
883,08	869,70
883,25	858,10
883,41	823,97
883,58	904,52
883,75	834,21
883,92	851,27
884,09	930,46
884,26	817,14
884,42	763,89
884,59	798,03
884,76	804,17
884,93	708,60
885,10	856,05
885,26	790,52
885,43	879,26
885,60	703,14
885,77	813,04
885,93	777,55
886,10	704,50
886,27	754,34
886,44	755,70
886,61	761,16
886,77	812,36
886,94	758,43
887,11	731,81
887,28	762,53
887,45	701,09
887,61	682,66
887,78	753,65
887,95	735,22
888,12	686,75
888,28	795,29
888,45	707,91
888,62	740,68
888,79	664,22
888,95	687,43
889,12	632,14
889,29	644,43
889,46	647,16
889,62	722,25
>>>>>End Processed Spectral Data<<<<<
