SpectraSuite Datei
++++++++++++++++++++++++++++++++++++
Datum: Tue Jun 03 15:56:37 CEST 2014
Benutzer: Admin
Dark-Spektrum vorhanden: Ja
Referenz-Spektrum vorhanden: Nein
Zahl der probierten Teilspektren: 1
Spektrometer: USB4F03547
Integrationszeit (usec): 5000 (USB4F03547)
Spektren Durchschnitt berechnet: 800 (USB4F03547)
Boxcar GlÃ¤ttung: 0 (USB4F03547)
Dunkelstromkorrektur: Nein (USB4F03547)
Puls/Lampe aktiviert: Nein (USB4F03547)
Correct for Detector Non-linearity: Nein (USB4F03547)
Streulichtkorrektur: Nein (USB4F03547)
Anzahl Pixel in verarbeitetem Spektrum: 3648
>>>>>Begin Processed Spectral Data<<<<<
179,21	14,75
179,43	14,75
179,64	14,75
179,86	12,43
180,07	14,74
180,29	12,57
180,50	14,50
180,72	13,74
180,93	15,92
181,15	12,32
181,37	16,49
181,58	12,85
181,80	13,61
182,01	17,49
182,23	13,38
182,44	13,80
182,66	13,54
182,87	14,29
183,09	12,61
183,30	16,38
183,52	15,57
183,73	15,86
183,95	15,13
184,16	14,68
184,38	14,74
184,60	12,99
184,81	15,06
185,03	13,51
185,24	10,37
185,46	16,42
185,67	15,87
185,89	14,51
186,10	13,37
186,32	15,20
186,53	12,85
186,75	12,50
186,96	13,51
187,18	12,90
187,39	13,69
187,61	16,19
187,82	13,77
188,04	17,04
188,25	13,72
188,47	13,21
188,68	15,25
188,90	16,16
189,11	11,61
189,33	15,57
189,54	14,95
189,76	14,29
189,97	16,64
190,19	14,70
190,40	11,71
190,62	10,94
190,83	14,10
191,05	10,40
191,26	14,45
191,48	13,32
191,69	16,74
191,91	14,81
192,12	13,48
192,34	14,24
192,55	17,90
192,77	13,60
192,98	12,92
193,20	15,98
193,41	16,33
193,63	13,05
193,84	13,89
194,06	13,74
194,27	15,41
194,49	15,18
194,70	16,06
194,92	14,33
195,13	12,67
195,35	14,35
195,56	15,14
195,78	17,53
195,99	14,87
196,21	14,21
196,42	12,25
196,64	13,47
196,85	13,38
197,07	15,43
197,28	14,35
197,50	13,35
197,71	16,23
197,93	13,37
198,14	16,67
198,36	15,72
198,57	10,79
198,79	16,69
199,00	17,08
199,21	14,64
199,43	16,04
199,64	17,15
199,86	18,40
200,07	11,89
200,29	15,16
200,50	12,89
200,72	15,49
200,93	15,31
201,15	15,01
201,36	15,70
201,58	15,09
201,79	18,42
202,01	17,30
202,22	14,62
202,43	14,37
202,65	15,31
202,86	14,99
203,08	11,56
203,29	14,38
203,51	18,77
203,72	17,06
203,94	16,06
204,15	12,78
204,37	12,08
204,58	14,46
204,80	14,45
205,01	15,65
205,22	14,60
205,44	18,07
205,65	17,11
205,87	16,01
206,08	13,56
206,30	15,29
206,51	11,87
206,73	16,56
206,94	14,06
207,15	13,69
207,37	12,82
207,58	12,24
207,80	15,09
208,01	14,27
208,23	14,48
208,44	14,09
208,66	15,60
208,87	15,83
209,08	11,91
209,30	15,50
209,51	15,28
209,73	17,66
209,94	13,32
210,16	14,80
210,37	16,46
210,58	15,86
210,80	17,35
211,01	13,80
211,23	11,82
211,44	16,47
211,66	16,08
211,87	14,36
212,08	18,61
212,30	14,34
212,51	15,27
212,73	14,64
212,94	15,89
213,16	17,55
213,37	15,41
213,58	16,00
213,80	15,88
214,01	16,16
214,23	14,61
214,44	11,35
214,65	14,16
214,87	14,24
215,08	17,19
215,30	13,63
215,51	14,32
215,73	17,69
215,94	13,54
216,15	15,35
216,37	15,11
216,58	11,69
216,80	16,31
217,01	15,36
217,22	16,46
217,44	12,11
217,65	17,93
217,87	16,63
218,08	13,77
218,29	18,45
218,51	15,17
218,72	10,25
218,94	14,16
219,15	16,34
219,36	15,24
219,58	12,69
219,79	15,70
220,01	11,71
220,22	12,84
220,43	15,79
220,65	15,91
220,86	16,05
221,08	15,83
221,29	12,60
221,50	13,48
221,72	15,89
221,93	12,99
222,14	15,72
222,36	12,93
222,57	14,76
222,79	13,03
223,00	17,30
223,21	13,09
223,43	16,41
223,64	13,43
223,86	15,02
224,07	14,15
224,28	15,10
224,50	16,50
224,71	15,18
224,92	16,99
225,14	14,21
225,35	14,74
225,57	14,76
225,78	15,10
225,99	14,13
226,21	15,67
226,42	14,80
226,63	15,48
226,85	17,01
227,06	13,31
227,27	14,39
227,49	13,63
227,70	14,67
227,92	14,32
228,13	14,35
228,34	13,07
228,56	13,72
228,77	15,60
228,98	15,69
229,20	13,08
229,41	14,86
229,62	14,50
229,84	18,79
230,05	11,80
230,27	13,30
230,48	14,99
230,69	16,97
230,91	14,43
231,12	14,71
231,33	15,85
231,55	11,90
231,76	11,75
231,97	12,42
232,19	13,09
232,40	16,88
232,61	15,07
232,83	13,58
233,04	17,02
233,25	14,78
233,47	10,86
233,68	12,39
233,89	16,29
234,11	16,14
234,32	14,84
234,53	15,79
234,75	16,66
234,96	14,58
235,17	14,60
235,39	11,45
235,60	14,80
235,81	16,49
236,03	16,07
236,24	16,42
236,45	14,58
236,67	14,53
236,88	13,30
237,09	15,35
237,31	14,13
237,52	13,35
237,73	12,34
237,95	16,16
238,16	12,30
238,37	14,37
238,59	11,56
238,80	15,86
239,01	12,38
239,23	16,73
239,44	17,54
239,65	15,11
239,87	14,04
240,08	13,16
240,29	15,56
240,51	15,12
240,72	13,80
240,93	16,95
241,14	13,59
241,36	16,55
241,57	14,43
241,78	17,00
242,00	13,53
242,21	18,48
242,42	14,68
242,64	13,25
242,85	14,61
243,06	15,20
243,28	13,99
243,49	14,21
243,70	12,73
243,91	17,16
244,13	13,70
244,34	11,91
244,55	12,70
244,77	12,94
244,98	17,05
245,19	14,72
245,41	13,91
245,62	16,74
245,83	17,76
246,04	12,98
246,26	15,33
246,47	14,01
246,68	16,48
246,90	16,96
247,11	18,14
247,32	15,61
247,53	15,35
247,75	15,32
247,96	13,49
248,17	14,95
248,39	15,55
248,60	15,98
248,81	13,22
249,02	15,50
249,24	16,24
249,45	18,90
249,66	15,68
249,87	15,15
250,09	17,49
250,30	16,98
250,51	16,29
250,73	15,88
250,94	13,89
251,15	15,13
251,36	18,23
251,58	15,39
251,79	14,39
252,00	18,16
252,21	14,89
252,43	13,13
252,64	13,13
252,85	15,02
253,07	16,31
253,28	19,52
253,49	14,59
253,70	16,77
253,92	12,94
254,13	16,59
254,34	15,41
254,55	15,64
254,77	13,88
254,98	14,39
255,19	15,96
255,40	15,93
255,62	13,68
255,83	14,75
256,04	15,52
256,25	17,79
256,47	19,66
256,68	15,34
256,89	12,58
257,10	15,54
257,32	14,37
257,53	14,86
257,74	13,60
257,95	16,44
258,17	12,91
258,38	15,66
258,59	13,84
258,80	16,08
259,02	13,25
259,23	16,27
259,44	14,82
259,65	19,98
259,86	12,20
260,08	13,64
260,29	13,40
260,50	12,08
260,71	17,34
260,93	12,60
261,14	18,28
261,35	15,00
261,56	16,92
261,78	13,11
261,99	17,85
262,20	17,03
262,41	15,57
262,62	15,44
262,84	15,70
263,05	12,61
263,26	17,48
263,47	16,59
263,69	17,31
263,90	12,72
264,11	12,63
264,32	18,35
264,53	12,48
264,75	14,87
264,96	17,70
265,17	18,12
265,38	16,23
265,59	15,46
265,81	19,58
266,02	13,05
266,23	15,34
266,44	15,71
266,66	14,82
266,87	15,53
267,08	17,31
267,29	17,09
267,50	16,57
267,72	15,10
267,93	13,47
268,14	14,39
268,35	14,06
268,56	16,46
268,78	14,38
268,99	13,05
269,20	13,21
269,41	15,45
269,62	17,34
269,84	16,40
270,05	16,77
270,26	12,35
270,47	14,63
270,68	15,12
270,89	14,96
271,11	13,34
271,32	16,53
271,53	17,20
271,74	14,78
271,95	15,35
272,17	19,35
272,38	17,45
272,59	17,39
272,80	16,48
273,01	14,56
273,22	14,78
273,44	16,79
273,65	17,35
273,86	15,93
274,07	16,40
274,28	14,56
274,50	14,48
274,71	18,10
274,92	13,64
275,13	14,21
275,34	16,29
275,55	17,93
275,77	14,60
275,98	12,44
276,19	16,00
276,40	12,86
276,61	17,49
276,82	17,14
277,04	15,24
277,25	14,22
277,46	13,40
277,67	14,45
277,88	15,87
278,09	13,25
278,31	12,92
278,52	16,59
278,73	15,12
278,94	13,21
279,15	16,58
279,36	14,43
279,57	13,83
279,79	14,49
280,00	14,41
280,21	16,11
280,42	13,16
280,63	14,99
280,84	14,05
281,05	17,35
281,27	13,89
281,48	12,67
281,69	12,41
281,90	17,31
282,11	14,87
282,32	18,96
282,53	14,50
282,75	13,80
282,96	14,47
283,17	13,47
283,38	14,37
283,59	16,53
283,80	15,05
284,01	14,32
284,23	17,38
284,44	12,86
284,65	13,48
284,86	13,80
285,07	11,28
285,28	11,71
285,49	15,09
285,70	16,16
285,92	16,12
286,13	15,35
286,34	14,68
286,55	14,91
286,76	18,13
286,97	14,81
287,18	15,36
287,39	16,28
287,61	16,25
287,82	15,53
288,03	16,91
288,24	13,39
288,45	17,78
288,66	16,12
288,87	14,54
289,08	14,48
289,29	14,59
289,51	14,90
289,72	12,00
289,93	12,29
290,14	18,87
290,35	15,50
290,56	12,74
290,77	16,10
290,98	14,55
291,19	13,60
291,40	15,55
291,62	14,25
291,83	13,55
292,04	14,05
292,25	14,48
292,46	14,25
292,67	15,02
292,88	15,97
293,09	15,12
293,30	13,93
293,51	15,72
293,73	13,67
293,94	12,03
294,15	10,70
294,36	12,04
294,57	15,94
294,78	14,99
294,99	17,33
295,20	14,91
295,41	13,07
295,62	14,50
295,83	13,09
296,04	15,63
296,26	16,40
296,47	15,90
296,68	12,53
296,89	18,39
297,10	11,42
297,31	13,94
297,52	15,83
297,73	15,70
297,94	16,53
298,15	14,69
298,36	12,78
298,57	15,19
298,78	14,93
298,99	14,71
299,21	12,60
299,42	15,37
299,63	14,90
299,84	13,74
300,05	13,18
300,26	16,05
300,47	16,88
300,68	15,29
300,89	17,33
301,10	15,36
301,31	14,81
301,52	15,76
301,73	14,75
301,94	14,22
302,15	13,62
302,36	15,03
302,57	15,82
302,79	12,55
303,00	17,08
303,21	14,43
303,42	11,48
303,63	12,56
303,84	15,93
304,05	13,31
304,26	13,08
304,47	14,37
304,68	13,22
304,89	16,01
305,10	15,66
305,31	13,09
305,52	15,36
305,73	14,55
305,94	16,32
306,15	14,51
306,36	14,39
306,57	13,15
306,78	14,87
306,99	13,60
307,20	14,83
307,41	13,61
307,62	14,24
307,83	16,49
308,04	16,32
308,25	14,91
308,46	12,23
308,68	10,84
308,89	15,34
309,10	15,88
309,31	16,09
309,52	14,29
309,73	14,92
309,94	12,44
310,15	16,02
310,36	17,27
310,57	14,81
310,78	13,48
310,99	14,86
311,20	16,37
311,41	13,96
311,62	15,91
311,83	16,12
312,04	12,79
312,25	13,80
312,46	12,32
312,67	15,98
312,88	14,33
313,09	17,28
313,30	13,72
313,51	15,49
313,72	14,91
313,93	13,51
314,14	14,22
314,35	17,35
314,56	13,06
314,77	16,27
314,98	12,47
315,19	18,18
315,40	14,39
315,61	14,76
315,82	12,57
316,03	13,21
316,24	15,45
316,45	13,76
316,66	18,25
316,87	15,31
317,08	14,48
317,29	15,78
317,50	12,66
317,71	14,71
317,92	11,97
318,13	14,98
318,34	15,03
318,55	13,70
318,76	15,76
318,96	14,88
319,17	15,22
319,38	10,88
319,59	11,82
319,80	11,52
320,01	14,78
320,22	16,20
320,43	18,11
320,64	13,31
320,85	15,67
321,06	13,10
321,27	16,18
321,48	12,18
321,69	18,01
321,90	14,41
322,11	15,02
322,32	16,40
322,53	11,29
322,74	17,63
322,95	9,65
323,16	15,57
323,37	15,42
323,58	13,11
323,79	14,63
324,00	14,70
324,21	18,56
324,42	13,47
324,62	15,84
324,83	14,82
325,04	14,40
325,25	15,04
325,46	16,32
325,67	14,94
325,88	13,73
326,09	13,03
326,30	15,92
326,51	15,01
326,72	15,46
326,93	14,65
327,14	11,99
327,35	13,43
327,56	18,94
327,77	15,04
327,98	15,76
328,18	15,68
328,39	16,36
328,60	17,42
328,81	16,77
329,02	16,81
329,23	15,88
329,44	13,34
329,65	16,77
329,86	17,33
330,07	20,26
330,28	20,61
330,49	22,82
330,70	29,44
330,91	43,71
331,11	63,86
331,32	79,15
331,53	86,33
331,74	79,99
331,95	72,32
332,16	49,14
332,37	32,51
332,58	24,96
332,79	20,37
333,00	20,66
333,21	18,36
333,42	18,92
333,62	17,80
333,83	14,11
334,04	17,33
334,25	15,67
334,46	14,56
334,67	18,63
334,88	13,39
335,09	14,82
335,30	13,71
335,51	16,49
335,71	11,81
335,92	13,33
336,13	13,23
336,34	14,32
336,55	15,92
336,76	17,63
336,97	13,92
337,18	15,07
337,39	15,33
337,59	14,56
337,80	16,25
338,01	14,28
338,22	8,89
338,43	15,91
338,64	14,84
338,85	12,54
339,06	16,08
339,27	14,16
339,47	12,87
339,68	19,09
339,89	13,21
340,10	13,72
340,31	16,50
340,52	14,86
340,73	15,19
340,94	14,40
341,14	12,60
341,35	16,27
341,56	13,57
341,77	15,43
341,98	12,85
342,19	16,84
342,40	15,49
342,61	13,64
342,81	16,76
343,02	13,18
343,23	13,91
343,44	13,35
343,65	13,75
343,86	14,84
344,07	11,72
344,27	14,42
344,48	14,30
344,69	18,40
344,90	12,50
345,11	16,17
345,32	14,63
345,53	14,41
345,73	17,71
345,94	17,58
346,15	13,65
346,36	12,35
346,57	13,43
346,78	16,27
346,98	16,99
347,19	15,02
347,40	13,68
347,61	15,86
347,82	16,52
348,03	15,61
348,24	15,52
348,44	15,78
348,65	15,44
348,86	15,18
349,07	12,79
349,28	16,05
349,49	13,58
349,69	14,20
349,90	14,23
350,11	17,17
350,32	15,97
350,53	14,99
350,74	15,40
350,94	17,14
351,15	15,65
351,36	13,50
351,57	17,90
351,78	15,56
351,98	13,25
352,19	15,78
352,40	12,03
352,61	16,69
352,82	16,11
353,03	17,23
353,23	13,42
353,44	15,66
353,65	17,31
353,86	13,56
354,07	15,26
354,27	16,46
354,48	15,78
354,69	14,80
354,90	15,29
355,11	11,28
355,31	15,64
355,52	15,26
355,73	11,56
355,94	17,51
356,15	15,04
356,35	14,90
356,56	18,19
356,77	16,32
356,98	12,80
357,19	14,92
357,39	17,56
357,60	15,03
357,81	16,91
358,02	16,01
358,23	17,81
358,43	15,89
358,64	15,82
358,85	13,40
359,06	14,31
359,27	16,14
359,47	17,09
359,68	12,23
359,89	14,34
360,10	15,11
360,30	15,74
360,51	14,73
360,72	14,97
360,93	16,96
361,14	18,20
361,34	14,20
361,55	14,64
361,76	15,35
361,97	16,83
362,17	15,09
362,38	15,60
362,59	15,98
362,80	14,27
363,00	12,61
363,21	15,21
363,42	14,74
363,63	11,08
363,84	13,00
364,04	11,68
364,25	12,70
364,46	14,18
364,67	14,93
364,87	16,93
365,08	15,36
365,29	14,63
365,50	16,33
365,70	13,97
365,91	14,30
366,12	16,37
366,33	16,08
366,53	16,60
366,74	14,65
366,95	13,22
367,16	14,68
367,36	14,67
367,57	15,46
367,78	14,66
367,99	15,35
368,19	16,91
368,40	14,39
368,61	14,43
368,81	12,64
369,02	17,11
369,23	16,16
369,44	14,75
369,64	12,57
369,85	15,25
370,06	15,36
370,27	17,00
370,47	11,62
370,68	14,83
370,89	12,84
371,10	15,97
371,30	17,13
371,51	12,94
371,72	13,86
371,92	12,78
372,13	17,78
372,34	14,47
372,55	13,92
372,75	14,58
372,96	15,90
373,17	12,56
373,37	15,78
373,58	15,79
373,79	15,89
374,00	17,97
374,20	17,56
374,41	15,51
374,62	15,45
374,82	15,73
375,03	15,31
375,24	15,25
375,45	15,32
375,65	14,87
375,86	16,63
376,07	16,41
376,27	12,79
376,48	17,64
376,69	15,24
376,89	16,58
377,10	14,59
377,31	12,16
377,52	17,19
377,72	17,65
377,93	14,70
378,14	14,35
378,34	16,21
378,55	14,99
378,76	16,06
378,96	14,17
379,17	17,15
379,38	17,00
379,58	16,68
379,79	18,50
380,00	15,85
380,20	14,14
380,41	15,69
380,62	16,76
380,82	13,70
381,03	13,23
381,24	17,87
381,44	13,91
381,65	16,43
381,86	16,24
382,06	14,32
382,27	15,74
382,48	13,30
382,68	13,76
382,89	14,69
383,10	17,82
383,30	15,68
383,51	17,31
383,72	16,37
383,92	15,77
384,13	15,27
384,34	14,95
384,54	15,92
384,75	15,40
384,96	14,51
385,16	14,21
385,37	15,17
385,58	15,94
385,78	13,20
385,99	18,35
386,20	13,57
386,40	15,11
386,61	14,59
386,82	13,13
387,02	14,70
387,23	16,74
387,44	14,92
387,64	11,08
387,85	15,40
388,05	10,34
388,26	18,89
388,47	11,10
388,67	16,51
388,88	15,02
389,09	15,28
389,29	15,44
389,50	16,60
389,71	13,06
389,91	16,87
390,12	14,44
390,32	11,65
390,53	16,96
390,74	10,33
390,94	11,72
391,15	16,86
391,36	12,46
391,56	17,34
391,77	15,16
391,97	13,44
392,18	16,23
392,39	17,11
392,59	15,87
392,80	16,02
393,00	16,11
393,21	16,21
393,42	14,12
393,62	14,86
393,83	14,56
394,04	15,07
394,24	15,64
394,45	16,13
394,65	16,54
394,86	12,81
395,07	13,03
395,27	18,82
395,48	15,74
395,68	15,19
395,89	15,82
396,10	16,18
396,30	18,58
396,51	13,34
396,71	14,91
396,92	13,73
397,13	16,28
397,33	16,72
397,54	18,40
397,74	17,07
397,95	16,79
398,15	11,09
398,36	14,61
398,57	14,60
398,77	13,76
398,98	16,52
399,18	14,96
399,39	12,88
399,60	14,78
399,80	16,98
400,01	18,24
400,21	17,03
400,42	13,74
400,62	14,90
400,83	16,10
401,04	14,51
401,24	15,75
401,45	14,83
401,65	16,92
401,86	13,63
402,06	16,05
402,27	13,01
402,48	15,22
402,68	19,05
402,89	15,33
403,09	15,54
403,30	13,68
403,50	18,43
403,71	15,69
403,91	13,77
404,12	15,06
404,33	14,71
404,53	18,38
404,74	17,75
404,94	14,81
405,15	18,52
405,35	17,03
405,56	18,15
405,76	16,23
405,97	15,39
406,18	14,61
406,38	15,99
406,59	15,33
406,79	17,01
407,00	16,06
407,20	16,66
407,41	10,59
407,61	14,51
407,82	18,86
408,02	16,65
408,23	15,30
408,43	13,44
408,64	17,32
408,85	16,73
409,05	15,14
409,26	15,88
409,46	14,64
409,67	17,97
409,87	14,03
410,08	14,93
410,28	12,97
410,49	13,64
410,69	14,81
410,90	14,24
411,10	15,83
411,31	15,22
411,51	13,20
411,72	13,48
411,92	14,28
412,13	13,62
412,33	11,90
412,54	16,05
412,74	15,44
412,95	12,07
413,15	15,03
413,36	15,17
413,56	15,01
413,77	17,31
413,97	14,72
414,18	14,73
414,38	13,41
414,59	15,95
414,79	16,57
415,00	14,44
415,20	15,56
415,41	16,68
415,61	15,94
415,82	16,72
416,02	15,95
416,23	14,52
416,43	16,83
416,64	18,95
416,84	17,26
417,05	20,32
417,25	17,00
417,46	20,01
417,66	17,68
417,87	13,55
418,07	14,74
418,28	17,41
418,48	15,68
418,69	17,13
418,89	17,18
419,10	15,70
419,30	16,98
419,51	16,17
419,71	15,39
419,92	18,87
420,12	18,44
420,32	16,96
420,53	18,94
420,73	22,02
420,94	19,62
421,14	20,43
421,35	18,16
421,55	18,02
421,76	15,65
421,96	16,46
422,17	13,39
422,37	16,86
422,58	12,71
422,78	14,30
422,98	15,59
423,19	15,16
423,39	12,67
423,60	13,95
423,80	18,49
424,01	14,56
424,21	14,26
424,42	16,63
424,62	15,47
424,82	14,10
425,03	15,52
425,23	16,38
425,44	10,50
425,64	16,15
425,85	16,02
426,05	15,33
426,26	15,93
426,46	13,23
426,66	13,91
426,87	17,77
427,07	17,88
427,28	13,26
427,48	20,05
427,69	19,70
427,89	14,85
428,09	19,06
428,30	16,06
428,50	18,12
428,71	17,89
428,91	16,89
429,12	13,60
429,32	16,20
429,52	14,37
429,73	16,17
429,93	14,73
430,14	12,03
430,34	16,00
430,54	17,57
430,75	16,56
430,95	19,73
431,16	14,24
431,36	15,56
431,56	17,70
431,77	18,81
431,97	16,72
432,18	13,51
432,38	15,30
432,59	16,37
432,79	14,97
432,99	14,23
433,20	15,63
433,40	17,33
433,61	14,19
433,81	17,64
434,01	16,43
434,22	17,57
434,42	18,99
434,62	14,25
434,83	16,73
435,03	12,30
435,24	17,61
435,44	18,15
435,64	17,27
435,85	15,44
436,05	12,72
436,26	17,29
436,46	14,89
436,66	15,38
436,87	14,47
437,07	12,58
437,27	18,15
437,48	16,59
437,68	13,25
437,89	16,37
438,09	15,68
438,29	14,05
438,50	17,66
438,70	18,16
438,90	16,04
439,11	16,63
439,31	15,19
439,51	12,92
439,72	13,60
439,92	15,87
440,13	15,88
440,33	14,46
440,53	13,71
440,74	14,47
440,94	15,83
441,14	13,57
441,35	15,28
441,55	15,37
441,75	14,83
441,96	15,40
442,16	14,64
442,36	15,98
442,57	14,22
442,77	18,02
442,97	16,49
443,18	16,59
443,38	16,35
443,58	14,98
443,79	15,85
443,99	12,46
444,20	12,07
444,40	14,82
444,60	16,73
444,81	15,67
445,01	13,88
445,21	14,99
445,42	18,02
445,62	15,81
445,82	12,98
446,02	15,19
446,23	15,83
446,43	16,60
446,63	13,77
446,84	14,67
447,04	15,19
447,24	12,69
447,45	19,61
447,65	15,49
447,85	14,63
448,06	13,92
448,26	16,48
448,46	16,12
448,67	17,73
448,87	17,28
449,07	16,94
449,28	17,22
449,48	13,38
449,68	16,96
449,88	15,81
450,09	14,66
450,29	16,53
450,49	15,16
450,70	17,23
450,90	14,98
451,10	15,60
451,31	15,78
451,51	17,76
451,71	18,58
451,91	13,54
452,12	14,95
452,32	14,54
452,52	14,34
452,73	19,48
452,93	14,17
453,13	16,64
453,33	15,09
453,54	14,75
453,74	18,74
453,94	17,63
454,15	14,66
454,35	14,29
454,55	12,57
454,75	16,04
454,96	14,47
455,16	15,95
455,36	17,02
455,57	15,55
455,77	18,59
455,97	17,51
456,17	12,99
456,38	20,79
456,58	17,24
456,78	18,64
456,98	17,80
457,19	13,25
457,39	13,38
457,59	18,50
457,79	14,56
458,00	13,62
458,20	15,17
458,40	15,31
458,60	15,41
458,81	13,33
459,01	17,21
459,21	15,05
459,41	17,17
459,62	16,36
459,82	15,57
460,02	16,53
460,22	15,77
460,43	14,25
460,63	14,21
460,83	19,23
461,03	15,48
461,24	15,50
461,44	13,62
461,64	13,29
461,84	12,07
462,05	13,03
462,25	16,14
462,45	14,65
462,65	17,16
462,86	15,44
463,06	18,18
463,26	15,65
463,46	16,51
463,66	18,03
463,87	15,05
464,07	12,63
464,27	17,31
464,47	13,70
464,68	17,70
464,88	13,98
465,08	16,55
465,28	13,13
465,48	14,93
465,69	12,66
465,89	14,10
466,09	18,51
466,29	10,67
466,49	19,09
466,70	20,95
466,90	17,03
467,10	15,76
467,30	22,78
467,50	18,25
467,71	20,30
467,91	17,58
468,11	15,30
468,31	17,53
468,51	17,93
468,72	19,72
468,92	19,11
469,12	18,17
469,32	15,74
469,52	14,57
469,73	15,12
469,93	15,06
470,13	14,96
470,33	13,98
470,53	16,43
470,74	16,61
470,94	15,60
471,14	16,19
471,34	14,11
471,54	13,49
471,74	15,83
471,95	14,72
472,15	14,89
472,35	14,27
472,55	14,78
472,75	15,27
472,95	16,81
473,16	14,16
473,36	14,68
473,56	17,85
473,76	16,02
473,96	15,70
474,16	18,15
474,37	16,35
474,57	18,36
474,77	15,97
474,97	17,61
475,17	15,63
475,37	13,84
475,58	15,56
475,78	17,25
475,98	17,23
476,18	15,87
476,38	15,25
476,58	17,46
476,78	16,82
476,99	14,91
477,19	17,70
477,39	15,68
477,59	15,21
477,79	16,29
477,99	15,24
478,19	18,08
478,40	16,13
478,60	16,93
478,80	13,85
479,00	13,99
479,20	15,66
479,40	17,22
479,60	14,36
479,81	17,37
480,01	14,28
480,21	18,07
480,41	15,59
480,61	15,83
480,81	17,51
481,01	15,07
481,21	15,78
481,42	14,67
481,62	16,21
481,82	16,25
482,02	15,84
482,22	17,60
482,42	14,23
482,62	12,96
482,82	16,70
483,02	18,57
483,23	15,40
483,43	16,49
483,63	17,00
483,83	14,98
484,03	16,48
484,23	14,69
484,43	16,32
484,63	16,54
484,83	14,19
485,04	16,16
485,24	14,33
485,44	16,37
485,64	19,05
485,84	13,63
486,04	16,65
486,24	17,27
486,44	14,98
486,64	12,16
486,84	14,92
487,04	15,75
487,25	15,50
487,45	16,86
487,65	20,00
487,85	15,60
488,05	18,89
488,25	16,01
488,45	16,71
488,65	17,56
488,85	14,50
489,05	16,01
489,25	16,99
489,45	15,85
489,65	17,14
489,86	16,06
490,06	15,61
490,26	18,95
490,46	14,52
490,66	20,30
490,86	18,57
491,06	16,21
491,26	15,82
491,46	16,54
491,66	15,04
491,86	15,66
492,06	15,81
492,26	15,76
492,46	14,90
492,66	16,89
492,86	10,60
493,06	20,19
493,27	16,94
493,47	16,76
493,67	17,36
493,87	17,56
494,07	19,69
494,27	18,15
494,47	17,89
494,67	16,10
494,87	18,13
495,07	17,86
495,27	14,80
495,47	15,97
495,67	16,62
495,87	16,28
496,07	16,95
496,27	19,80
496,47	16,83
496,67	17,41
496,87	15,97
497,07	12,06
497,27	17,00
497,47	17,33
497,67	18,83
497,87	23,42
498,07	30,14
498,27	31,88
498,47	48,25
498,67	52,42
498,87	54,85
499,07	51,89
499,27	50,31
499,47	43,73
499,67	34,71
499,87	30,73
500,07	26,46
500,27	19,83
500,47	21,98
500,67	19,73
500,87	19,98
501,07	16,29
501,27	20,00
501,47	15,13
501,67	17,55
501,87	18,02
502,07	17,03
502,27	18,99
502,47	18,08
502,67	13,22
502,87	16,16
503,07	15,09
503,27	16,80
503,47	14,80
503,67	16,81
503,87	18,89
504,07	17,59
504,27	19,44
504,47	17,09
504,67	18,21
504,87	16,81
505,07	15,69
505,27	18,37
505,47	15,59
505,67	19,69
505,87	17,69
506,07	12,94
506,27	15,67
506,47	16,48
506,67	17,21
506,87	14,62
507,07	14,05
507,27	16,86
507,47	18,20
507,67	18,87
507,87	14,47
508,07	17,54
508,27	17,13
508,47	17,57
508,67	15,80
508,87	15,38
509,06	18,38
509,26	15,21
509,46	14,34
509,66	17,13
509,86	19,10
510,06	15,34
510,26	13,90
510,46	18,19
510,66	16,12
510,86	17,34
511,06	19,92
511,26	14,03
511,46	20,96
511,66	14,76
511,86	15,41
512,06	15,23
512,26	15,83
512,45	15,01
512,65	18,06
512,85	16,77
513,05	16,90
513,25	18,31
513,45	15,21
513,65	18,26
513,85	15,77
514,05	15,09
514,25	15,94
514,45	13,86
514,65	21,55
514,85	14,81
515,04	21,54
515,24	21,48
515,44	21,78
515,64	26,39
515,84	28,87
516,04	27,40
516,24	28,93
516,44	21,79
516,64	22,45
516,84	21,09
517,04	20,63
517,23	22,02
517,43	18,44
517,63	16,34
517,83	17,73
518,03	16,92
518,23	17,83
518,43	16,91
518,63	15,46
518,83	18,86
519,02	15,23
519,22	19,33
519,42	14,47
519,62	13,92
519,82	19,31
520,02	19,19
520,22	17,28
520,42	16,95
520,62	16,83
520,81	16,60
521,01	16,50
521,21	18,26
521,41	18,20
521,61	15,89
521,81	17,60
522,01	15,72
522,21	15,01
522,40	16,77
522,60	16,47
522,80	17,88
523,00	15,81
523,20	15,40
523,40	20,11
523,60	18,25
523,79	15,13
523,99	16,11
524,19	16,05
524,39	16,75
524,59	20,04
524,79	18,48
524,99	15,83
525,18	15,76
525,38	13,35
525,58	14,30
525,78	18,34
525,98	13,06
526,18	19,16
526,37	18,53
526,57	14,02
526,77	17,16
526,97	15,92
527,17	19,25
527,37	16,05
527,56	16,29
527,76	15,77
527,96	14,50
528,16	18,64
528,36	16,22
528,56	14,11
528,75	16,39
528,95	17,93
529,15	16,33
529,35	17,44
529,55	16,17
529,75	13,94
529,94	18,77
530,14	15,50
530,34	16,62
530,54	18,52
530,74	15,90
530,93	16,81
531,13	17,83
531,33	16,98
531,53	17,92
531,73	18,59
531,93	15,82
532,12	16,32
532,32	20,43
532,52	19,25
532,72	18,55
532,92	18,51
533,11	16,32
533,31	15,42
533,51	16,92
533,71	16,80
533,91	15,95
534,10	15,54
534,30	16,69
534,50	19,15
534,70	16,58
534,89	20,18
535,09	19,02
535,29	14,49
535,49	20,08
535,69	14,13
535,88	16,99
536,08	16,25
536,28	17,55
536,48	18,07
536,68	17,87
536,87	17,33
537,07	18,66
537,27	15,56
537,47	17,22
537,66	15,98
537,86	14,78
538,06	15,43
538,26	18,48
538,45	14,77
538,65	20,69
538,85	17,05
539,05	14,99
539,24	18,79
539,44	13,46
539,64	17,53
539,84	14,72
540,03	22,59
540,23	17,07
540,43	18,19
540,63	18,48
540,82	14,95
541,02	18,06
541,22	18,10
541,42	18,06
541,61	13,78
541,81	14,27
542,01	18,25
542,21	20,68
542,40	17,89
542,60	18,13
542,80	17,72
543,00	18,07
543,19	16,02
543,39	14,71
543,59	19,04
543,79	16,87
543,98	17,96
544,18	16,77
544,38	17,10
544,57	13,95
544,77	18,80
544,97	17,51
545,17	16,77
545,36	20,24
545,56	16,67
545,76	18,32
545,96	15,80
546,15	15,90
546,35	15,90
546,55	16,36
546,74	16,58
546,94	19,11
547,14	18,38
547,33	18,62
547,53	18,66
547,73	19,82
547,93	18,82
548,12	16,91
548,32	19,20
548,52	17,90
548,71	19,45
548,91	14,79
549,11	19,73
549,30	14,76
549,50	15,92
549,70	19,22
549,90	18,05
550,09	18,18
550,29	19,67
550,49	21,34
550,68	15,21
550,88	19,23
551,08	23,25
551,27	20,25
551,47	17,72
551,67	19,99
551,86	19,65
552,06	17,25
552,26	17,33
552,45	14,78
552,65	21,43
552,85	18,02
553,04	16,26
553,24	18,88
553,44	16,91
553,63	19,13
553,83	19,05
554,03	19,68
554,22	16,24
554,42	17,36
554,62	16,77
554,81	14,98
555,01	17,24
555,21	18,77
555,40	19,10
555,60	17,46
555,80	19,42
555,99	19,51
556,19	19,76
556,39	18,69
556,58	19,68
556,78	18,76
556,97	20,41
557,17	20,30
557,37	22,87
557,56	19,26
557,76	19,55
557,96	21,70
558,15	16,23
558,35	20,17
558,55	20,61
558,74	23,14
558,94	18,71
559,13	18,25
559,33	16,94
559,53	19,22
559,72	21,01
559,92	20,77
560,12	19,28
560,31	23,08
560,51	22,62
560,70	19,19
560,90	23,25
561,10	23,65
561,29	20,86
561,49	21,64
561,68	24,69
561,88	23,12
562,08	24,08
562,27	26,68
562,47	25,92
562,66	27,22
562,86	27,08
563,06	28,45
563,25	29,81
563,45	31,27
563,64	32,99
563,84	30,91
564,04	34,88
564,23	33,61
564,43	35,20
564,62	36,30
564,82	34,65
565,02	35,39
565,21	39,69
565,41	38,01
565,60	37,93
565,80	38,10
566,00	41,11
566,19	36,39
566,39	40,75
566,58	37,06
566,78	41,21
566,97	39,06
567,17	39,08
567,37	41,08
567,56	40,59
567,76	46,59
567,95	52,65
568,15	86,28
568,34	139,61
568,54	188,05
568,74	275,99
568,93	376,16
569,13	419,32
569,32	419,72
569,52	423,09
569,71	386,76
569,91	315,98
570,10	271,99
570,30	227,15
570,50	194,58
570,69	155,16
570,89	127,13
571,08	104,38
571,28	89,03
571,47	77,10
571,67	63,99
571,86	64,27
572,06	58,33
572,25	59,78
572,45	52,15
572,65	56,77
572,84	55,42
573,04	54,87
573,23	53,81
573,43	54,21
573,62	54,96
573,82	53,31
574,01	54,27
574,21	54,78
574,40	55,05
574,60	54,17
574,79	54,16
574,99	52,26
575,18	56,02
575,38	55,59
575,57	54,02
575,77	58,02
575,96	56,85
576,16	54,84
576,35	55,05
576,55	57,64
576,74	55,66
576,94	56,25
577,13	58,94
577,33	58,99
577,52	58,88
577,72	60,63
577,91	59,89
578,11	62,18
578,30	64,32
578,50	61,79
578,69	62,57
578,89	63,73
579,08	62,24
579,28	61,30
579,47	62,56
579,67	64,54
579,86	65,49
580,06	65,56
580,25	67,93
580,45	66,31
580,64	69,36
580,84	67,71
581,03	69,93
581,23	73,80
581,42	68,95
581,62	72,97
581,81	74,82
582,01	76,35
582,20	78,97
582,40	81,28
582,59	80,86
582,78	85,11
582,98	83,74
583,17	84,82
583,37	91,49
583,56	88,72
583,76	98,41
583,95	113,35
584,15	125,51
584,34	145,83
584,54	169,24
584,73	183,04
584,93	190,67
585,12	189,29
585,31	187,81
585,51	171,66
585,70	165,51
585,90	158,26
586,09	148,03
586,29	146,85
586,48	154,90
586,68	157,32
586,87	167,53
587,06	175,84
587,26	188,06
587,45	203,46
587,65	217,48
587,84	247,72
588,04	282,40
588,23	375,47
588,42	730,54
588,62	2872,91
588,81	10925,51
589,01	25047,67
589,20	35588,96
589,40	47860,42
589,59	55189,48
589,78	58814,93
589,98	57989,28
590,17	56742,52
590,37	54977,03
590,56	50076,23
590,75	45598,97
590,95	42254,56
591,14	36775,09
591,34	26818,08
591,53	17834,69
591,72	12636,18
591,92	9038,87
592,11	6260,32
592,31	4185,22
592,50	2834,80
592,69	1881,03
592,89	1311,65
593,08	946,65
593,28	705,04
593,47	555,31
593,66	452,64
593,86	379,54
594,05	335,58
594,25	299,79
594,44	272,81
594,63	247,55
594,83	236,57
595,02	217,86
595,21	207,95
595,41	199,57
595,60	191,86
595,80	183,55
595,99	178,56
596,18	168,82
596,38	164,54
596,57	161,13
596,76	153,29
596,96	147,11
597,15	143,23
597,35	135,00
597,54	135,98
597,73	128,93
597,93	132,42
598,12	128,43
598,31	127,03
598,51	123,85
598,70	121,16
598,89	96,99
599,09	115,32
599,28	114,10
599,47	111,93
599,67	108,29
599,86	105,53
600,05	105,58
600,25	101,82
600,44	99,20
600,63	101,00
600,83	96,51
601,02	93,21
601,21	94,01
601,41	91,75
601,60	91,86
601,79	92,49
601,99	85,03
602,18	85,54
602,37	84,30
602,57	81,54
602,76	56,77
602,95	82,08
603,15	82,68
603,34	78,48
603,53	78,79
603,73	78,58
603,92	78,47
604,11	77,35
604,31	75,54
604,50	76,51
604,69	70,76
604,89	72,56
605,08	71,67
605,27	69,43
605,46	68,22
605,66	69,92
605,85	69,92
606,04	68,42
606,24	64,15
606,43	69,58
606,62	65,28
606,82	60,63
607,01	59,92
607,20	62,73
607,39	60,97
607,59	60,04
607,78	57,10
607,97	58,48
608,17	58,85
608,36	56,68
608,55	52,27
608,74	52,66
608,94	55,99
609,13	52,76
609,32	48,86
609,52	53,12
609,71	50,06
609,90	49,37
610,09	52,06
610,29	51,33
610,48	53,32
610,67	48,12
610,86	47,16
611,06	51,05
611,25	49,55
611,44	44,02
611,64	42,95
611,83	45,43
612,02	43,00
612,21	43,18
612,41	41,11
612,60	40,55
612,79	38,82
612,98	40,84
613,18	39,21
613,37	39,34
613,56	37,01
613,75	38,31
613,95	40,51
614,14	39,74
614,33	39,65
614,52	39,40
614,71	37,19
614,91	36,56
615,10	38,45
615,29	45,79
615,48	54,57
615,68	64,33
615,87	79,12
616,06	100,69
616,25	114,18
616,45	116,86
616,64	117,84
616,83	116,06
617,02	100,44
617,21	86,73
617,41	76,90
617,60	66,99
617,79	64,71
617,98	54,73
618,18	45,25
618,37	42,12
618,56	38,75
618,75	32,96
618,94	30,38
619,14	32,39
619,33	36,15
619,52	29,94
619,71	32,26
619,90	28,27
620,10	31,29
620,29	29,42
620,48	29,05
620,67	28,14
620,86	28,23
621,06	28,75
621,25	25,12
621,44	29,60
621,63	32,65
621,82	29,74
622,01	29,00
622,21	27,52
622,40	26,95
622,59	25,98
622,78	27,32
622,97	26,71
623,17	26,56
623,36	28,38
623,55	24,76
623,74	26,31
623,93	24,89
624,12	28,67
624,32	25,37
624,51	24,85
624,70	27,58
624,89	27,10
625,08	24,91
625,27	23,56
625,47	26,44
625,66	25,81
625,85	25,07
626,04	25,77
626,23	26,52
626,42	25,36
626,61	23,63
626,81	24,16
627,00	24,11
627,19	24,18
627,38	24,37
627,57	21,95
627,76	22,87
627,95	21,21
628,15	24,13
628,34	26,72
628,53	25,49
628,72	24,42
628,91	25,81
629,10	23,19
629,29	26,28
629,49	21,36
629,68	23,94
629,87	25,07
630,06	24,45
630,25	23,34
630,44	21,72
630,63	21,19
630,82	19,46
631,01	23,09
631,21	21,90
631,40	24,10
631,59	24,74
631,78	22,55
631,97	22,47
632,16	25,44
632,35	20,21
632,54	21,46
632,73	24,72
632,93	20,35
633,12	22,09
633,31	23,81
633,50	22,69
633,69	23,23
633,88	20,74
634,07	24,27
634,26	21,19
634,45	22,06
634,64	20,23
634,84	20,62
635,03	20,35
635,22	22,47
635,41	23,50
635,60	22,53
635,79	21,22
635,98	23,16
636,17	23,28
636,36	23,14
636,55	24,49
636,74	22,70
636,93	20,15
637,12	21,83
637,32	22,04
637,51	23,14
637,70	22,07
637,89	23,85
638,08	24,50
638,27	23,24
638,46	19,17
638,65	21,82
638,84	22,92
639,03	21,13
639,22	23,63
639,41	22,52
639,60	21,24
639,79	23,17
639,98	22,17
640,17	20,58
640,36	22,15
640,56	20,86
640,75	23,58
640,94	20,88
641,13	22,35
641,32	20,65
641,51	22,75
641,70	20,84
641,89	22,55
642,08	19,65
642,27	20,88
642,46	20,88
642,65	22,60
642,84	19,87
643,03	21,63
643,22	19,24
643,41	21,70
643,60	20,87
643,79	21,63
643,98	22,98
644,17	21,23
644,36	18,42
644,55	20,04
644,74	23,14
644,93	21,98
645,12	20,13
645,31	23,84
645,50	20,48
645,69	22,80
645,88	16,25
646,07	20,33
646,26	21,18
646,45	19,23
646,64	18,19
646,83	21,63
647,02	21,65
647,21	18,52
647,40	21,30
647,59	18,52
647,78	19,32
647,97	20,87
648,16	19,80
648,35	21,56
648,54	20,14
648,73	20,10
648,92	19,44
649,11	16,51
649,30	22,17
649,49	18,88
649,68	21,40
649,87	20,97
650,06	19,51
650,25	20,81
650,44	20,00
650,63	21,95
650,82	18,78
651,01	22,13
651,20	20,07
651,39	23,79
651,58	20,59
651,77	19,56
651,96	20,48
652,15	19,11
652,33	18,46
652,52	18,43
652,71	19,87
652,90	21,23
653,09	21,82
653,28	19,83
653,47	19,65
653,66	23,45
653,85	20,66
654,04	17,86
654,23	21,07
654,42	19,18
654,61	20,61
654,80	19,26
654,99	22,92
655,18	22,00
655,37	18,70
655,55	18,89
655,74	19,75
655,93	17,19
656,12	19,26
656,31	17,69
656,50	16,52
656,69	19,01
656,88	18,06
657,07	17,60
657,26	16,62
657,45	20,69
657,64	16,77
657,83	20,83
658,01	18,25
658,20	18,29
658,39	20,00
658,58	15,88
658,77	16,49
658,96	18,22
659,15	19,62
659,34	20,85
659,53	19,45
659,72	18,97
659,90	19,74
660,09	18,81
660,28	18,47
660,47	15,87
660,66	21,73
660,85	19,91
661,04	21,55
661,23	19,35
661,42	19,09
661,60	17,29
661,79	18,15
661,98	16,81
662,17	18,19
662,36	21,32
662,55	17,89
662,74	20,43
662,93	16,16
663,11	17,83
663,30	17,20
663,49	19,66
663,68	19,69
663,87	18,99
664,06	20,18
664,25	17,33
664,44	17,21
664,62	15,62
664,81	20,18
665,00	17,51
665,19	19,53
665,38	18,32
665,57	15,49
665,76	17,12
665,94	16,79
666,13	19,20
666,32	18,83
666,51	19,03
666,70	16,91
666,89	17,31
667,07	19,05
667,26	16,34
667,45	16,53
667,64	16,75
667,83	21,08
668,02	18,32
668,20	17,94
668,39	16,55
668,58	19,67
668,77	19,66
668,96	17,59
669,15	20,17
669,33	19,19
669,52	17,46
669,71	19,00
669,90	15,88
670,09	18,76
670,27	16,25
670,46	15,94
670,65	15,49
670,84	17,38
671,03	14,32
671,22	15,29
671,40	17,22
671,59	18,76
671,78	17,86
671,97	20,22
672,16	19,81
672,34	16,34
672,53	16,98
672,72	21,40
672,91	18,33
673,09	16,37
673,28	19,44
673,47	16,61
673,66	18,74
673,85	18,04
674,03	17,41
674,22	15,62
674,41	15,78
674,60	16,19
674,79	17,45
674,97	20,84
675,16	16,93
675,35	17,21
675,54	14,93
675,72	18,77
675,91	17,33
676,10	18,93
676,29	18,15
676,47	20,48
676,66	19,42
676,85	16,66
677,04	19,62
677,23	17,40
677,41	15,27
677,60	19,17
677,79	19,62
677,98	12,86
678,16	14,40
678,35	19,48
678,54	12,86
678,73	18,09
678,91	15,14
679,10	15,88
679,29	15,43
679,48	14,06
679,66	14,98
679,85	17,51
680,04	15,33
680,22	16,60
680,41	14,44
680,60	18,11
680,79	15,56
680,97	19,14
681,16	16,39
681,35	14,44
681,54	16,06
681,72	16,72
681,91	16,62
682,10	13,21
682,28	17,12
682,47	17,27
682,66	14,95
682,85	16,06
683,03	16,37
683,22	17,79
683,41	13,17
683,59	18,86
683,78	16,38
683,97	20,53
684,16	14,93
684,34	13,65
684,53	13,43
684,72	16,64
684,90	17,48
685,09	16,34
685,28	14,15
685,46	17,62
685,65	17,53
685,84	16,96
686,03	14,84
686,21	16,94
686,40	16,36
686,59	15,43
686,77	15,06
686,96	17,60
687,15	16,31
687,33	17,89
687,52	16,17
687,71	14,99
687,89	19,33
688,08	16,09
688,27	18,66
688,45	18,15
688,64	18,29
688,83	18,79
689,01	16,08
689,20	16,55
689,39	13,71
689,57	16,01
689,76	14,78
689,95	14,21
690,13	18,29
690,32	13,06
690,51	16,96
690,69	13,80
690,88	16,84
691,07	14,87
691,25	18,22
691,44	15,08
691,62	15,94
691,81	14,55
692,00	15,33
692,18	14,69
692,37	17,52
692,56	13,70
692,74	16,97
692,93	16,34
693,12	17,95
693,30	17,78
693,49	18,91
693,67	15,82
693,86	14,38
694,05	16,71
694,23	15,71
694,42	14,77
694,61	16,83
694,79	18,72
694,98	17,09
695,16	14,37
695,35	14,94
695,54	14,80
695,72	14,54
695,91	15,22
696,09	22,83
696,28	32,69
696,47	68,81
696,65	86,96
696,84	104,51
697,02	113,77
697,21	118,42
697,40	113,38
697,58	92,86
697,77	86,93
697,95	78,11
698,14	70,44
698,33	63,83
698,51	55,89
698,70	53,66
698,88	50,51
699,07	43,69
699,25	38,27
699,44	38,21
699,63	28,51
699,81	23,76
700,00	21,83
700,18	17,07
700,37	16,75
700,55	16,14
700,74	13,50
700,93	16,45
701,11	14,82
701,30	18,00
701,48	15,49
701,67	18,71
701,85	15,56
702,04	17,38
702,23	14,07
702,41	15,72
702,60	13,80
702,78	18,74
702,97	15,65
703,15	17,48
703,34	16,53
703,52	15,53
703,71	18,12
703,89	16,16
704,08	18,62
704,27	16,16
704,45	18,34
704,64	15,97
704,82	17,36
705,01	15,34
705,19	16,92
705,38	17,12
705,56	12,78
705,75	16,89
705,93	16,25
706,12	18,61
706,30	19,00
706,49	30,58
706,67	49,85
706,86	59,87
707,04	68,29
707,23	73,29
707,41	77,25
707,60	71,25
707,78	58,44
707,97	56,43
708,15	51,57
708,34	49,00
708,52	41,42
708,71	39,31
708,89	36,40
709,08	36,69
709,26	32,24
709,45	30,15
709,63	28,65
709,82	27,27
710,00	19,14
710,19	17,65
710,37	17,81
710,56	17,29
710,74	17,25
710,93	18,70
711,11	14,59
711,30	16,65
711,48	20,63
711,67	14,68
711,85	16,57
712,04	15,65
712,22	14,49
712,41	16,76
712,59	17,14
712,78	15,84
712,96	13,33
713,14	14,07
713,33	20,17
713,51	16,70
713,70	13,56
713,88	14,95
714,07	15,86
714,25	16,66
714,44	18,20
714,62	19,15
714,81	18,56
714,99	18,95
715,17	22,07
715,36	18,30
715,54	21,63
715,73	23,42
715,91	19,23
716,10	19,67
716,28	20,13
716,47	19,75
716,65	19,11
716,83	16,22
717,02	18,64
717,20	16,94
717,39	19,45
717,57	19,93
717,76	16,37
717,94	18,70
718,12	16,49
718,31	12,90
718,49	15,56
718,68	15,18
718,86	16,94
719,04	16,63
719,23	14,28
719,41	13,88
719,60	18,53
719,78	13,59
719,97	12,65
720,15	15,16
720,33	15,87
720,52	13,82
720,70	16,69
720,89	17,85
721,07	15,59
721,25	16,75
721,44	15,97
721,62	13,73
721,80	20,64
721,99	16,65
722,17	15,38
722,36	15,45
722,54	15,02
722,72	15,03
722,91	15,87
723,09	15,56
723,28	13,10
723,46	17,58
723,64	13,30
723,83	17,53
724,01	16,51
724,19	16,62
724,38	14,00
724,56	18,18
724,74	13,68
724,93	20,21
725,11	17,07
725,30	19,04
725,48	17,64
725,66	13,50
725,85	15,48
726,03	15,49
726,21	16,85
726,40	14,60
726,58	16,09
726,76	18,76
726,95	19,23
727,13	23,12
727,31	31,61
727,50	35,51
727,68	39,15
727,86	39,03
728,05	40,91
728,23	35,63
728,41	28,94
728,60	31,65
728,78	26,15
728,96	28,79
729,15	24,46
729,33	23,54
729,51	19,24
729,70	20,61
729,88	19,49
730,06	21,23
730,25	16,48
730,43	17,92
730,61	17,00
730,80	16,26
730,98	16,59
731,16	16,54
731,35	16,24
731,53	15,09
731,71	15,56
731,89	19,01
732,08	15,96
732,26	19,55
732,44	14,51
732,63	15,74
732,81	15,36
732,99	17,04
733,18	15,98
733,36	15,26
733,54	16,85
733,72	14,87
733,91	16,74
734,09	15,21
734,27	13,16
734,46	13,68
734,64	15,53
734,82	16,77
735,00	13,84
735,19	17,87
735,37	17,31
735,55	16,88
735,73	15,52
735,92	14,32
736,10	19,22
736,28	15,05
736,46	17,08
736,65	17,96
736,83	17,50
737,01	13,85
737,20	14,96
737,38	13,99
737,56	16,96
737,74	20,07
737,93	23,04
738,11	33,86
738,29	65,93
738,47	90,22
738,66	102,29
738,84	112,21
739,02	115,21
739,20	107,32
739,38	91,97
739,57	79,55
739,75	72,68
739,93	67,09
740,11	57,23
740,30	51,20
740,48	47,70
740,66	41,78
740,84	38,94
741,03	36,49
741,21	36,46
741,39	33,31
741,57	27,27
741,75	21,29
741,94	23,93
742,12	18,81
742,30	20,90
742,48	18,86
742,66	17,99
742,85	14,75
743,03	15,73
743,21	17,47
743,39	14,18
743,57	19,99
743,76	14,99
743,94	17,10
744,12	18,03
744,30	14,39
744,48	14,36
744,67	13,98
744,85	17,45
745,03	12,40
745,21	15,81
745,39	15,30
745,58	14,85
745,76	14,08
745,94	18,13
746,12	14,81
746,30	16,01
746,48	17,09
746,67	14,22
746,85	13,69
747,03	14,21
747,21	13,76
747,39	15,18
747,57	16,15
747,76	13,12
747,94	16,32
748,12	14,09
748,30	13,92
748,48	14,62
748,66	16,66
748,85	18,68
749,03	17,45
749,21	18,01
749,39	17,85
749,57	17,26
749,75	17,22
749,93	19,17
750,12	28,62
750,30	52,55
750,48	70,86
750,66	76,21
750,84	87,56
751,02	95,31
751,20	95,27
751,39	105,80
751,57	116,27
751,75	116,78
751,93	119,66
752,11	115,64
752,29	104,59
752,47	87,77
752,65	79,77
752,84	73,06
753,02	67,72
753,20	59,51
753,38	52,74
753,56	44,54
753,74	41,68
753,92	38,75
754,10	37,17
754,28	34,61
754,46	32,97
754,65	25,63
754,83	28,77
755,01	21,46
755,19	19,51
755,37	18,13
755,55	14,64
755,73	16,51
755,91	16,90
756,09	16,73
756,27	18,94
756,46	15,26
756,64	16,43
756,82	17,54
757,00	16,50
757,18	15,70
757,36	18,33
757,54	15,98
757,72	14,97
757,90	17,33
758,08	16,98
758,26	16,71
758,44	14,51
758,62	14,60
758,80	14,99
758,99	15,75
759,17	11,78
759,35	16,21
759,53	20,05
759,71	14,29
759,89	17,59
760,07	16,76
760,25	17,98
760,43	16,06
760,61	16,22
760,79	18,39
760,97	16,92
761,15	20,18
761,33	17,33
761,51	16,26
761,69	17,54
761,87	14,98
762,05	16,58
762,23	16,76
762,41	14,99
762,59	20,83
762,77	19,38
762,95	25,55
763,13	53,76
763,31	142,11
763,50	259,68
763,68	324,49
763,86	381,70
764,04	416,76
764,22	398,78
764,40	338,31
764,58	262,40
764,76	216,20
764,94	183,04
765,12	162,48
765,30	139,44
765,48	123,96
765,66	111,49
765,84	112,57
766,02	112,16
766,20	123,27
766,38	141,91
766,56	158,15
766,74	157,34
766,92	158,05
767,10	143,51
767,28	122,86
767,46	94,49
767,64	70,81
767,82	56,64
767,99	48,64
768,17	38,13
768,35	35,09
768,53	27,20
768,71	28,23
768,89	29,42
769,07	26,89
769,25	28,46
769,43	29,03
769,61	35,19
769,79	44,48
769,97	61,61
770,15	68,15
770,33	73,89
770,51	72,00
770,69	67,19
770,87	54,40
771,05	41,01
771,23	37,70
771,41	29,59
771,59	25,34
771,77	27,90
771,95	29,80
772,13	50,14
772,31	97,07
772,48	137,77
772,66	164,08
772,84	174,03
773,02	179,05
773,20	161,19
773,38	125,68
773,56	96,40
773,74	80,52
773,92	70,01
774,10	63,51
774,28	55,65
774,46	51,76
774,64	47,49
774,81	50,67
774,99	47,78
775,17	50,35
775,35	45,42
775,53	43,11
775,71	34,49
775,89	30,29
776,07	25,34
776,25	20,94
776,43	22,10
776,61	16,55
776,78	18,83
776,96	16,44
777,14	18,81
777,32	14,93
777,50	14,47
777,68	14,78
777,86	14,69
778,04	14,68
778,22	15,35
778,39	12,06
778,57	15,23
778,75	17,87
778,93	15,84
779,11	16,02
779,29	15,78
779,47	15,85
779,65	16,24
779,82	17,07
780,00	12,31
780,18	15,34
780,36	15,60
780,54	15,25
780,72	16,06
780,90	12,76
781,08	13,97
781,25	17,44
781,43	12,50
781,61	13,84
781,79	12,96
781,97	15,70
782,15	16,34
782,32	16,04
782,50	13,22
782,68	17,66
782,86	15,09
783,04	16,64
783,22	14,14
783,39	13,40
783,57	16,76
783,75	16,16
783,93	15,95
784,11	18,33
784,29	15,50
784,46	16,07
784,64	14,99
784,82	12,63
785,00	16,61
785,18	17,55
785,36	12,46
785,53	15,12
785,71	20,52
785,89	14,19
786,07	13,59
786,25	12,83
786,42	15,41
786,60	14,75
786,78	14,53
786,96	18,81
787,14	18,13
787,31	13,42
787,49	17,54
787,67	17,43
787,85	14,56
788,03	15,41
788,20	14,38
788,38	15,16
788,56	16,30
788,74	14,72
788,92	13,97
789,09	16,05
789,27	18,06
789,45	12,01
789,63	15,56
789,80	17,20
789,98	13,62
790,16	12,92
790,34	15,72
790,52	14,56
790,69	17,35
790,87	17,02
791,05	15,74
791,23	15,36
791,40	12,81
791,58	17,43
791,76	14,48
791,94	17,04
792,11	16,52
792,29	15,66
792,47	14,43
792,65	18,13
792,82	13,52
793,00	15,19
793,18	18,44
793,36	18,73
793,53	18,17
793,71	14,75
793,89	17,83
794,07	19,59
794,24	16,59
794,42	23,55
794,60	43,93
794,78	74,74
794,95	90,25
795,13	101,92
795,31	102,13
795,48	97,27
795,66	78,57
795,84	54,65
796,02	45,56
796,19	42,56
796,37	39,26
796,55	38,09
796,72	37,17
796,90	32,94
797,08	34,65
797,26	37,64
797,43	33,67
797,61	33,89
797,79	35,19
797,96	31,38
798,14	28,62
798,32	28,63
798,49	23,47
798,67	22,63
798,85	19,29
799,02	15,57
799,20	15,20
799,38	15,63
799,56	19,71
799,73	14,34
799,91	19,87
800,09	19,60
800,26	19,30
800,44	38,94
800,62	54,79
800,79	57,33
800,97	69,20
801,15	75,91
801,32	98,20
801,50	109,27
801,68	107,77
801,85	113,91
802,03	111,19
802,21	98,48
802,38	72,40
802,56	57,18
802,74	53,43
802,91	47,58
803,09	50,99
803,26	47,89
803,44	48,25
803,62	47,57
803,79	47,13
803,97	45,91
804,15	44,93
804,32	38,15
804,50	39,90
804,68	34,21
804,85	37,45
805,03	28,64
805,20	25,75
805,38	26,81
805,56	19,02
805,73	20,36
805,91	23,53
806,09	16,89
806,26	17,86
806,44	18,14
806,61	17,73
806,79	15,17
806,97	13,89
807,14	14,34
807,32	19,76
807,49	19,55
807,67	17,53
807,85	18,07
808,02	16,17
808,20	15,61
808,37	16,02
808,55	17,39
808,73	17,82
808,90	18,00
809,08	18,07
809,25	17,42
809,43	22,10
809,61	19,33
809,78	20,15
809,96	27,05
810,13	51,65
810,31	81,10
810,48	104,71
810,66	106,74
810,84	116,43
811,01	117,73
811,19	143,33
811,36	201,43
811,54	276,96
811,71	321,03
811,89	341,97
812,07	340,55
812,24	299,80
812,42	219,16
812,59	156,30
812,77	135,06
812,94	128,85
813,12	122,27
813,29	123,41
813,47	121,11
813,65	114,69
813,82	112,38
814,00	108,81
814,17	106,26
814,35	99,42
814,52	95,42
814,70	94,84
814,87	83,76
815,05	73,03
815,22	59,57
815,40	50,41
815,57	40,67
815,75	36,21
815,92	27,15
816,10	23,07
816,28	24,64
816,45	21,74
816,63	22,30
816,80	22,93
816,98	22,32
817,15	22,42
817,33	21,61
817,50	20,25
817,68	30,47
817,85	63,56
818,03	147,85
818,20	295,93
818,38	430,38
818,55	502,54
818,73	540,90
818,90	552,12
819,08	534,94
819,25	565,98
819,43	699,01
819,60	832,12
819,78	887,12
819,95	898,77
820,12	839,03
820,30	644,90
820,47	411,81
820,65	290,28
820,82	260,93
821,00	230,71
821,17	223,75
821,35	219,46
821,52	213,78
821,70	207,15
821,87	191,53
822,05	179,36
822,22	163,31
822,40	158,15
822,57	150,69
822,74	135,64
822,92	126,82
823,09	108,85
823,27	84,69
823,44	64,65
823,62	52,68
823,79	42,29
823,97	32,57
824,14	31,53
824,31	25,54
824,49	23,32
824,66	22,57
824,84	21,98
825,01	20,06
825,19	18,80
825,36	18,80
825,54	20,74
825,71	19,18
825,88	22,34
826,06	28,13
826,23	38,01
826,41	52,46
826,58	61,78
826,75	64,30
826,93	62,96
827,10	58,10
827,28	48,55
827,45	38,96
827,62	34,56
827,80	31,55
827,97	35,66
828,15	31,80
828,32	32,37
828,49	28,93
828,67	33,64
828,84	32,64
829,02	30,11
829,19	27,32
829,36	32,69
829,54	28,68
829,71	31,26
829,89	28,17
830,06	25,19
830,23	26,36
830,41	23,89
830,58	20,74
830,75	20,20
830,93	19,45
831,10	15,15
831,28	21,16
831,45	21,38
831,62	18,87
831,80	13,72
831,97	16,22
832,14	16,81
832,32	16,82
832,49	14,69
832,66	14,01
832,84	15,59
833,01	15,99
833,19	15,66
833,36	16,10
833,53	15,74
833,71	19,40
833,88	15,42
834,05	14,15
834,23	18,61
834,40	17,42
834,57	15,92
834,75	17,35
834,92	16,15
835,09	18,16
835,27	19,51
835,44	15,71
835,61	15,28
835,79	17,62
835,96	16,13
836,13	14,18
836,31	18,20
836,48	17,77
836,65	15,57
836,82	17,76
837,00	15,21
837,17	16,19
837,34	16,31
837,52	16,29
837,69	17,63
837,86	15,25
838,04	12,86
838,21	15,93
838,38	16,45
838,55	14,74
838,73	13,88
838,90	16,73
839,07	13,41
839,25	15,56
839,42	16,46
839,59	17,04
839,76	16,09
839,94	15,99
840,11	16,63
840,28	19,10
840,46	25,44
840,63	37,42
840,80	44,16
840,97	49,93
841,15	55,07
841,32	60,51
841,49	57,02
841,66	51,65
841,84	45,02
842,01	39,58
842,18	46,01
842,36	63,23
842,53	79,77
842,70	88,91
842,87	90,53
843,05	93,65
843,22	83,98
843,39	75,17
843,56	66,49
843,73	60,83
843,91	54,41
844,08	53,70
844,25	55,46
844,42	51,91
844,60	53,41
844,77	49,83
844,94	47,95
845,11	45,52
845,29	42,30
845,46	41,80
845,63	41,77
845,80	43,10
845,97	39,05
846,15	36,76
846,32	30,88
846,49	29,19
846,66	26,32
846,84	22,13
847,01	18,53
847,18	18,57
847,35	16,21
847,52	14,37
847,70	15,92
847,87	9,89
848,04	15,66
848,21	14,01
848,38	14,24
848,56	16,70
848,73	19,70
848,90	14,37
849,07	13,23
849,24	13,91
849,41	14,27
849,59	14,10
849,76	14,45
849,93	13,76
850,10	15,88
850,27	14,83
850,44	14,71
850,62	15,20
850,79	13,02
850,96	14,02
851,13	15,36
851,30	14,53
851,47	16,30
851,65	17,03
851,82	17,85
851,99	16,02
852,16	19,45
852,33	28,36
852,50	30,30
852,68	27,20
852,85	29,46
853,02	23,10
853,19	23,34
853,36	23,37
853,53	21,47
853,70	23,72
853,88	20,56
854,05	22,62
854,22	21,25
854,39	19,09
854,56	22,97
854,73	22,31
854,90	24,38
855,07	20,83
855,25	20,47
855,42	21,80
855,59	18,99
855,76	22,08
855,93	22,65
856,10	21,89
856,27	20,23
856,44	19,04
856,61	16,92
856,79	17,48
856,96	17,24
857,13	17,02
857,30	17,21
857,47	16,84
857,64	13,92
857,81	16,23
857,98	13,84
858,15	11,76
858,32	16,33
858,50	15,00
858,67	14,03
858,84	13,92
859,01	12,81
859,18	17,06
859,35	14,71
859,52	13,20
859,69	12,61
859,86	15,74
860,03	14,41
860,20	12,03
860,37	13,94
860,54	11,24
860,71	14,17
860,89	16,13
861,06	14,87
861,23	14,88
861,40	13,86
861,57	12,75
861,74	17,19
861,91	16,08
862,08	12,71
862,25	12,39
862,42	17,43
862,59	16,07
862,76	15,53
862,93	17,16
863,10	15,63
863,27	15,99
863,44	15,06
863,61	15,17
863,78	15,18
863,95	14,03
864,12	16,72
864,29	16,51
864,46	14,79
864,63	16,93
864,80	11,49
864,97	13,21
865,14	15,53
865,32	17,30
865,49	15,53
865,66	13,53
865,83	13,06
866,00	15,06
866,17	11,53
866,34	15,40
866,51	15,86
866,68	15,92
866,85	14,28
867,02	18,81
867,19	16,36
867,36	13,91
867,53	16,36
867,70	14,32
867,86	19,17
868,03	18,35
868,20	16,49
868,37	17,12
868,54	14,62
868,71	15,26
868,88	17,14
869,05	16,60
869,22	17,66
869,39	13,11
869,56	16,03
869,73	15,62
869,90	17,28
870,07	16,64
870,24	17,77
870,41	18,49
870,58	17,35
870,75	12,95
870,92	13,81
871,09	14,74
871,26	15,55
871,43	14,22
871,60	15,42
871,77	16,69
871,94	16,93
872,11	13,90
872,28	14,92
872,44	14,48
872,61	12,66
872,78	11,75
872,95	15,39
873,12	14,77
873,29	13,76
873,46	10,65
873,63	14,72
873,80	16,73
873,97	14,54
874,14	14,97
874,31	17,55
874,48	13,18
874,64	15,33
874,81	15,19
874,98	11,62
875,15	13,52
875,32	14,43
875,49	15,74
875,66	15,15
875,83	15,74
876,00	13,84
876,17	16,79
876,34	13,22
876,50	16,56
876,67	16,99
876,84	12,86
877,01	12,70
877,18	12,50
877,35	14,14
877,52	14,20
877,69	12,90
877,85	13,23
878,02	15,36
878,19	16,38
878,36	13,10
878,53	16,18
878,70	14,30
878,87	15,50
879,04	14,12
879,20	16,10
879,37	15,59
879,54	13,41
879,71	16,08
879,88	16,76
880,05	14,08
880,22	14,23
880,38	14,41
880,55	12,07
880,72	17,74
880,89	15,76
881,06	15,84
881,23	18,48
881,40	12,85
881,56	13,45
881,73	15,69
881,90	12,99
882,07	16,00
882,24	15,59
882,41	15,30
882,57	10,84
882,74	16,36
882,91	15,09
883,08	16,88
883,25	16,22
883,41	15,10
883,58	12,32
883,75	13,06
883,92	16,37
884,09	13,27
884,26	15,32
884,42	13,54
884,59	15,67
884,76	14,24
884,93	13,33
885,10	17,33
885,26	15,42
885,43	17,70
885,60	12,95
885,77	14,13
885,93	14,12
886,10	12,47
886,27	15,74
886,44	17,46
886,61	13,42
886,77	13,15
886,94	17,01
887,11	14,98
887,28	17,09
887,45	15,59
887,61	15,33
887,78	14,75
887,95	12,95
888,12	13,32
888,28	14,23
888,45	12,33
888,62	12,85
888,79	16,31
888,95	14,73
889,12	16,79
889,29	15,23
889,46	14,61
889,62	13,44
>>>>>End Processed Spectral Data<<<<<
