SpectraSuite Datei
++++++++++++++++++++++++++++++++++++
Datum: Tue Jun 03 15:48:03 CEST 2014
Benutzer: Admin
Dark-Spektrum vorhanden: Ja
Referenz-Spektrum vorhanden: Nein
Zahl der probierten Teilspektren: 1
Spektrometer: USB4F03547
Integrationszeit (usec): 5000 (USB4F03547)
Spektren Durchschnitt berechnet: 800 (USB4F03547)
Boxcar GlÃ¤ttung: 0 (USB4F03547)
Dunkelstromkorrektur: Nein (USB4F03547)
Puls/Lampe aktiviert: Nein (USB4F03547)
Correct for Detector Non-linearity: Nein (USB4F03547)
Streulichtkorrektur: Nein (USB4F03547)
Anzahl Pixel in verarbeitetem Spektrum: 3648
>>>>>Begin Processed Spectral Data<<<<<
179,21	8,63
179,43	8,63
179,64	8,63
179,86	6,82
180,07	10,64
180,29	6,43
180,50	8,56
180,72	9,36
180,93	7,79
181,15	8,07
181,37	8,22
181,58	7,49
181,80	7,35
182,01	10,22
182,23	7,62
182,44	10,34
182,66	5,39
182,87	5,74
183,09	20,79
183,30	29,94
183,52	26,58
183,73	28,03
183,95	27,03
184,16	28,36
184,38	29,21
184,60	26,83
184,81	30,13
185,03	26,76
185,24	23,33
185,46	27,71
185,67	28,76
185,89	26,50
186,10	25,94
186,32	25,84
186,53	23,16
186,75	28,23
186,96	26,16
187,18	23,26
187,39	25,10
187,61	24,69
187,82	24,30
188,04	27,05
188,25	26,06
188,47	25,94
188,68	26,24
188,90	25,38
189,11	23,70
189,33	27,43
189,54	27,45
189,76	26,12
189,97	27,68
190,19	27,62
190,40	25,15
190,62	24,50
190,83	27,65
191,05	20,67
191,26	25,53
191,48	27,95
191,69	27,93
191,91	24,13
192,12	23,55
192,34	25,03
192,55	23,81
192,77	25,78
192,98	24,08
193,20	28,40
193,41	26,53
193,63	23,71
193,84	25,12
194,06	25,48
194,27	25,22
194,49	24,08
194,70	27,18
194,92	25,24
195,13	25,12
195,35	27,97
195,56	28,83
195,78	27,52
195,99	24,53
196,21	26,39
196,42	25,68
196,64	24,81
196,85	24,14
197,07	23,40
197,28	23,54
197,50	27,42
197,71	25,54
197,93	26,80
198,14	26,35
198,36	27,98
198,57	23,83
198,79	23,29
199,00	29,43
199,21	26,66
199,43	27,06
199,64	26,27
199,86	29,75
200,07	23,96
200,29	25,47
200,50	23,33
200,72	26,25
200,93	24,09
201,15	28,26
201,36	25,54
201,58	27,15
201,79	28,04
202,01	28,60
202,22	25,85
202,43	28,11
202,65	24,65
202,86	25,92
203,08	26,18
203,29	27,58
203,51	29,24
203,72	26,04
203,94	26,21
204,15	25,75
204,37	23,65
204,58	24,33
204,80	26,06
205,01	29,77
205,22	26,05
205,44	28,60
205,65	28,00
205,87	26,40
206,08	25,96
206,30	26,63
206,51	21,40
206,73	26,67
206,94	27,36
207,15	23,67
207,37	22,95
207,58	25,41
207,80	25,58
208,01	26,83
208,23	28,08
208,44	26,84
208,66	26,16
208,87	27,87
209,08	25,21
209,30	28,99
209,51	24,27
209,73	28,16
209,94	27,37
210,16	24,68
210,37	25,08
210,58	24,75
210,80	28,04
211,01	23,79
211,23	22,30
211,44	24,47
211,66	27,69
211,87	26,27
212,08	27,99
212,30	25,79
212,51	26,33
212,73	23,09
212,94	23,52
213,16	25,87
213,37	24,67
213,58	24,65
213,80	24,94
214,01	24,28
214,23	25,02
214,44	24,44
214,65	26,61
214,87	22,03
215,08	26,63
215,30	25,69
215,51	25,51
215,73	27,01
215,94	24,65
216,15	25,38
216,37	25,15
216,58	21,22
216,80	25,83
217,01	30,21
217,22	23,61
217,44	23,62
217,65	25,77
217,87	27,82
218,08	26,39
218,29	26,56
218,51	23,26
218,72	21,73
218,94	27,16
219,15	26,94
219,36	23,62
219,58	25,68
219,79	25,45
220,01	25,11
220,22	24,61
220,43	25,65
220,65	23,32
220,86	26,87
221,08	26,27
221,29	20,94
221,50	25,23
221,72	27,63
221,93	23,85
222,14	26,05
222,36	25,42
222,57	27,73
222,79	25,06
223,00	29,08
223,21	27,57
223,43	26,33
223,64	25,20
223,86	27,12
224,07	26,42
224,28	26,30
224,50	24,83
224,71	28,47
224,92	30,75
225,14	26,95
225,35	24,47
225,57	27,75
225,78	26,55
225,99	25,41
226,21	27,68
226,42	24,19
226,63	28,28
226,85	26,96
227,06	26,49
227,27	23,57
227,49	24,44
227,70	25,66
227,92	24,92
228,13	24,86
228,34	25,18
228,56	22,10
228,77	27,77
228,98	25,23
229,20	26,92
229,41	22,94
229,62	25,69
229,84	28,20
230,05	24,32
230,27	26,74
230,48	27,48
230,69	29,51
230,91	27,30
231,12	24,72
231,33	27,72
231,55	25,95
231,76	23,32
231,97	25,69
232,19	26,51
232,40	28,91
232,61	27,72
232,83	25,21
233,04	24,50
233,25	28,55
233,47	23,22
233,68	23,27
233,89	28,46
234,11	26,82
234,32	25,84
234,53	27,74
234,75	27,68
234,96	26,09
235,17	26,52
235,39	27,49
235,60	26,09
235,81	30,41
236,03	25,10
236,24	29,26
236,45	28,45
236,67	28,41
236,88	26,84
237,09	26,84
237,31	27,21
237,52	25,60
237,73	27,55
237,95	27,23
238,16	25,56
238,37	29,11
238,59	26,78
238,80	29,66
239,01	27,88
239,23	27,23
239,44	30,54
239,65	23,84
239,87	26,59
240,08	27,98
240,29	30,04
240,51	29,75
240,72	29,72
240,93	30,20
241,14	31,77
241,36	31,40
241,57	31,00
241,78	35,20
242,00	29,69
242,21	33,64
242,42	31,65
242,64	32,87
242,85	36,15
243,06	36,57
243,28	38,12
243,49	38,73
243,70	40,76
243,91	46,39
244,13	47,10
244,34	44,76
244,55	46,52
244,77	50,19
244,98	54,06
245,19	51,99
245,41	55,95
245,62	57,20
245,83	61,64
246,04	58,38
246,26	56,76
246,47	57,82
246,68	56,80
246,90	57,57
247,11	58,95
247,32	58,53
247,53	58,46
247,75	59,77
247,96	56,50
248,17	58,25
248,39	59,16
248,60	60,16
248,81	55,40
249,02	56,86
249,24	56,26
249,45	54,51
249,66	58,53
249,87	56,54
250,09	60,92
250,30	55,60
250,51	58,05
250,73	59,56
250,94	60,34
251,15	58,52
251,36	60,70
251,58	60,75
251,79	58,72
252,00	60,71
252,21	59,34
252,43	58,13
252,64	58,77
252,85	57,40
253,07	57,71
253,28	60,13
253,49	59,04
253,70	58,39
253,92	57,94
254,13	60,74
254,34	60,07
254,55	61,11
254,77	59,34
254,98	55,77
255,19	61,78
255,40	60,01
255,62	57,36
255,83	62,74
256,04	62,80
256,25	59,12
256,47	63,84
256,68	57,34
256,89	58,77
257,10	61,41
257,32	63,11
257,53	60,19
257,74	58,91
257,95	62,00
258,17	61,20
258,38	63,82
258,59	61,01
258,80	59,99
259,02	62,85
259,23	59,88
259,44	61,03
259,65	63,42
259,86	60,67
260,08	59,93
260,29	61,98
260,50	61,70
260,71	64,34
260,93	57,41
261,14	63,85
261,35	58,98
261,56	65,72
261,78	61,40
261,99	65,28
262,20	63,34
262,41	60,12
262,62	60,00
262,84	60,90
263,05	58,39
263,26	61,31
263,47	58,61
263,69	62,76
263,90	57,04
264,11	58,99
264,32	63,45
264,53	59,11
264,75	60,79
264,96	63,26
265,17	62,18
265,38	61,99
265,59	60,79
265,81	65,20
266,02	57,63
266,23	58,92
266,44	59,79
266,66	60,26
266,87	55,89
267,08	61,89
267,29	59,61
267,50	60,85
267,72	57,66
267,93	59,38
268,14	58,69
268,35	59,40
268,56	58,14
268,78	57,52
268,99	58,96
269,20	57,31
269,41	60,45
269,62	61,76
269,84	58,91
270,05	60,02
270,26	56,82
270,47	59,14
270,68	57,88
270,89	59,61
271,11	57,55
271,32	60,87
271,53	61,38
271,74	58,72
271,95	57,18
272,17	61,55
272,38	59,31
272,59	61,66
272,80	57,69
273,01	60,55
273,22	61,52
273,44	60,59
273,65	60,88
273,86	57,02
274,07	59,04
274,28	59,28
274,50	57,61
274,71	58,35
274,92	56,85
275,13	57,81
275,34	56,01
275,55	56,66
275,77	54,35
275,98	53,04
276,19	51,17
276,40	43,84
276,61	47,81
276,82	42,52
277,04	42,63
277,25	38,77
277,46	33,67
277,67	36,75
277,88	35,79
278,09	33,33
278,31	29,53
278,52	32,96
278,73	32,84
278,94	31,77
279,15	33,15
279,36	28,76
279,57	30,42
279,79	26,60
280,00	26,21
280,21	30,98
280,42	27,80
280,63	27,82
280,84	27,02
281,05	30,04
281,27	26,01
281,48	28,93
281,69	27,21
281,90	29,70
282,11	24,19
282,32	30,56
282,53	28,80
282,75	29,30
282,96	26,10
283,17	27,37
283,38	29,63
283,59	31,47
283,80	26,73
284,01	27,56
284,23	31,39
284,44	28,49
284,65	28,06
284,86	21,52
285,07	24,47
285,28	27,69
285,49	27,85
285,70	28,95
285,92	29,76
286,13	25,56
286,34	29,85
286,55	28,63
286,76	27,98
286,97	27,25
287,18	26,15
287,39	32,20
287,61	27,42
287,82	27,93
288,03	27,55
288,24	25,66
288,45	27,45
288,66	28,02
288,87	27,87
289,08	29,16
289,29	26,40
289,51	29,07
289,72	25,83
289,93	25,79
290,14	31,23
290,35	28,95
290,56	29,64
290,77	31,17
290,98	26,95
291,19	28,14
291,40	29,10
291,62	27,43
291,83	27,59
292,04	27,54
292,25	29,59
292,46	27,37
292,67	26,12
292,88	30,40
293,09	29,31
293,30	27,38
293,51	31,37
293,73	26,60
293,94	26,38
294,15	25,77
294,36	27,56
294,57	31,59
294,78	28,85
294,99	31,26
295,20	28,48
295,41	26,87
295,62	32,42
295,83	27,98
296,04	31,87
296,26	29,37
296,47	29,91
296,68	27,43
296,89	29,79
297,10	26,79
297,31	29,44
297,52	29,65
297,73	30,00
297,94	27,48
298,15	29,02
298,36	25,99
298,57	28,81
298,78	29,51
298,99	30,39
299,21	27,22
299,42	30,78
299,63	31,62
299,84	29,77
300,05	29,16
300,26	30,79
300,47	31,28
300,68	27,48
300,89	30,12
301,10	26,67
301,31	28,17
301,52	29,91
301,73	30,41
301,94	28,27
302,15	31,53
302,36	30,24
302,57	29,82
302,79	30,57
303,00	28,84
303,21	29,87
303,42	29,30
303,63	28,67
303,84	27,63
304,05	26,71
304,26	30,77
304,47	26,89
304,68	25,82
304,89	28,99
305,10	29,40
305,31	26,15
305,52	29,91
305,73	29,75
305,94	27,26
306,15	27,20
306,36	29,33
306,57	29,10
306,78	29,79
306,99	30,68
307,20	29,97
307,41	28,61
307,62	28,10
307,83	29,04
308,04	34,72
308,25	30,93
308,46	29,09
308,68	29,87
308,89	28,32
309,10	30,11
309,31	29,85
309,52	29,99
309,73	32,48
309,94	31,66
310,15	31,10
310,36	32,57
310,57	31,04
310,78	30,17
310,99	27,99
311,20	32,89
311,41	30,89
311,62	29,49
311,83	28,03
312,04	29,48
312,25	29,00
312,46	27,57
312,67	31,65
312,88	30,57
313,09	31,40
313,30	28,95
313,51	26,82
313,72	32,47
313,93	29,87
314,14	30,12
314,35	31,38
314,56	29,32
314,77	32,97
314,98	28,37
315,19	32,80
315,40	30,28
315,61	29,36
315,82	29,19
316,03	29,89
316,24	30,87
316,45	30,26
316,66	33,75
316,87	32,79
317,08	29,23
317,29	32,84
317,50	29,85
317,71	31,30
317,92	30,32
318,13	30,38
318,34	30,24
318,55	31,75
318,76	31,52
318,96	31,47
319,17	32,09
319,38	30,11
319,59	31,12
319,80	32,43
320,01	32,97
320,22	32,90
320,43	31,14
320,64	31,39
320,85	32,90
321,06	31,65
321,27	34,71
321,48	31,64
321,69	34,18
321,90	32,64
322,11	33,81
322,32	32,68
322,53	30,30
322,74	35,81
322,95	31,19
323,16	34,81
323,37	35,14
323,58	36,97
323,79	35,63
324,00	32,28
324,21	36,27
324,42	39,63
324,62	37,32
324,83	40,90
325,04	36,05
325,25	36,60
325,46	38,19
325,67	37,30
325,88	37,19
326,09	34,65
326,30	38,72
326,51	37,86
326,72	36,35
326,93	39,30
327,14	38,49
327,35	37,21
327,56	38,63
327,77	38,73
327,98	41,81
328,18	41,27
328,39	41,78
328,60	47,17
328,81	50,21
329,02	55,18
329,23	62,98
329,44	85,78
329,65	110,87
329,86	154,57
330,07	223,99
330,28	336,83
330,49	558,61
330,70	998,46
330,91	1811,89
331,11	3057,14
331,32	3809,80
331,53	4312,04
331,74	3980,58
331,95	3461,76
332,16	2014,96
332,37	1101,99
332,58	568,20
332,79	377,06
333,00	254,32
333,21	167,55
333,42	116,07
333,62	79,04
333,83	56,89
334,04	57,16
334,25	51,97
334,46	50,84
334,67	49,46
334,88	46,42
335,09	43,24
335,30	42,16
335,51	43,11
335,71	42,10
335,92	43,32
336,13	43,62
336,34	41,67
336,55	43,29
336,76	44,97
336,97	40,20
337,18	43,41
337,39	42,29
337,59	42,53
337,80	47,42
338,01	42,24
338,22	38,85
338,43	43,11
338,64	41,77
338,85	41,27
339,06	41,54
339,27	39,05
339,47	38,65
339,68	43,77
339,89	38,38
340,10	42,79
340,31	43,80
340,52	44,17
340,73	42,83
340,94	42,95
341,14	42,27
341,35	43,05
341,56	39,57
341,77	38,33
341,98	41,81
342,19	38,04
342,40	42,13
342,61	41,00
342,81	43,49
343,02	42,41
343,23	42,89
343,44	43,83
343,65	44,71
343,86	45,09
344,07	41,08
344,27	43,46
344,48	44,12
344,69	46,37
344,90	42,36
345,11	44,10
345,32	43,48
345,53	41,52
345,73	42,75
345,94	45,60
346,15	42,86
346,36	40,10
346,57	43,20
346,78	46,07
346,98	45,41
347,19	46,83
347,40	47,66
347,61	48,05
347,82	46,95
348,03	46,21
348,24	48,82
348,44	44,84
348,65	49,38
348,86	45,94
349,07	43,87
349,28	48,94
349,49	44,89
349,69	46,51
349,90	46,45
350,11	48,21
350,32	48,65
350,53	50,31
350,74	43,65
350,94	48,59
351,15	44,86
351,36	45,17
351,57	45,56
351,78	47,48
351,98	47,30
352,19	46,04
352,40	48,68
352,61	47,37
352,82	44,65
353,03	46,16
353,23	46,37
353,44	45,03
353,65	46,75
353,86	42,21
354,07	46,76
354,27	46,97
354,48	48,76
354,69	47,72
354,90	49,09
355,11	44,03
355,31	47,09
355,52	50,59
355,73	47,53
355,94	49,17
356,15	52,03
356,35	51,03
356,56	53,22
356,77	54,24
356,98	52,47
357,19	51,52
357,39	56,43
357,60	55,22
357,81	53,70
358,02	53,70
358,23	56,51
358,43	52,02
358,64	49,70
358,85	48,32
359,06	49,49
359,27	49,51
359,47	48,05
359,68	46,59
359,89	47,03
360,10	47,25
360,30	50,02
360,51	47,11
360,72	49,84
360,93	47,25
361,14	51,40
361,34	47,66
361,55	49,04
361,76	51,25
361,97	54,05
362,17	50,66
362,38	50,29
362,59	53,56
362,80	49,65
363,00	47,85
363,21	49,75
363,42	51,10
363,63	49,50
363,84	47,14
364,04	49,65
364,25	50,09
364,46	53,96
364,67	53,81
364,87	55,03
365,08	50,70
365,29	51,95
365,50	51,59
365,70	52,51
365,91	53,36
366,12	58,32
366,33	53,74
366,53	56,33
366,74	51,02
366,95	52,13
367,16	54,86
367,36	56,37
367,57	52,77
367,78	54,37
367,99	52,71
368,19	53,43
368,40	52,19
368,61	50,20
368,81	52,21
369,02	51,64
369,23	42,69
369,44	51,39
369,64	52,30
369,85	51,52
370,06	53,53
370,27	54,74
370,47	50,83
370,68	55,14
370,89	52,92
371,10	53,07
371,30	57,49
371,51	52,76
371,72	51,24
371,92	52,16
372,13	56,83
372,34	53,31
372,55	54,15
372,75	53,86
372,96	55,49
373,17	52,09
373,37	54,41
373,58	54,03
373,79	53,91
374,00	56,33
374,20	52,98
374,41	55,33
374,62	54,18
374,82	50,94
375,03	55,25
375,24	52,76
375,45	57,09
375,65	58,27
375,86	53,70
376,07	55,14
376,27	56,84
376,48	56,14
376,69	54,84
376,89	54,15
377,10	52,05
377,31	52,81
377,52	58,18
377,72	54,50
377,93	56,28
378,14	55,68
378,34	53,63
378,55	56,27
378,76	52,93
378,96	54,99
379,17	57,84
379,38	55,32
379,58	60,15
379,79	59,26
380,00	57,65
380,20	55,05
380,41	52,36
380,62	56,98
380,82	54,09
381,03	54,56
381,24	55,38
381,44	56,26
381,65	56,04
381,86	57,49
382,06	55,13
382,27	55,25
382,48	51,76
382,68	53,60
382,89	56,24
383,10	54,10
383,30	54,29
383,51	56,68
383,72	58,88
383,92	57,03
384,13	54,63
384,34	57,84
384,54	61,06
384,75	55,17
384,96	55,67
385,16	53,42
385,37	54,13
385,58	55,49
385,78	51,68
385,99	56,33
386,20	52,09
386,40	53,33
386,61	51,68
386,82	51,97
387,02	50,26
387,23	55,77
387,44	54,96
387,64	52,35
387,85	54,02
388,05	53,24
388,26	56,58
388,47	56,26
388,67	56,52
388,88	55,83
389,09	54,96
389,29	55,17
389,50	54,80
389,71	51,41
389,91	57,36
390,12	54,13
390,32	57,52
390,53	57,51
390,74	56,50
390,94	52,08
391,15	54,54
391,36	55,26
391,56	57,43
391,77	54,73
391,97	54,75
392,18	59,59
392,39	54,94
392,59	54,90
392,80	53,84
393,00	53,72
393,21	57,05
393,42	55,53
393,62	55,79
393,83	56,62
394,04	57,31
394,24	59,63
394,45	58,03
394,65	59,82
394,86	57,87
395,07	63,91
395,27	70,29
395,48	77,44
395,68	83,15
395,89	84,72
396,10	87,15
396,30	84,82
396,51	69,08
396,71	63,57
396,92	63,20
397,13	60,49
397,33	57,39
397,54	63,33
397,74	58,11
397,95	58,79
398,15	52,92
398,36	54,17
398,57	56,92
398,77	53,62
398,98	57,41
399,18	55,15
399,39	54,03
399,60	54,98
399,80	57,56
400,01	56,31
400,21	57,15
400,42	54,86
400,62	57,40
400,83	57,86
401,04	55,66
401,24	55,02
401,45	54,87
401,65	54,10
401,86	54,99
402,06	56,72
402,27	54,31
402,48	56,87
402,68	60,42
402,89	57,62
403,09	62,80
403,30	57,77
403,50	61,38
403,71	59,45
403,91	58,46
404,12	60,62
404,33	61,72
404,53	71,62
404,74	76,98
404,94	92,35
405,15	103,47
405,35	107,17
405,56	112,53
405,76	103,75
405,97	86,97
406,18	80,23
406,38	72,78
406,59	71,60
406,79	68,13
407,00	62,12
407,20	62,19
407,41	61,50
407,61	57,93
407,82	63,32
408,02	61,47
408,23	61,27
408,43	57,27
408,64	62,82
408,85	60,30
409,05	57,69
409,26	60,90
409,46	61,15
409,67	60,98
409,87	59,63
410,08	64,16
410,28	61,52
410,49	65,77
410,69	64,53
410,90	61,21
411,10	64,35
411,31	62,25
411,51	60,54
411,72	61,76
411,92	60,74
412,13	59,71
412,33	60,92
412,54	62,31
412,74	61,53
412,95	60,43
413,15	60,55
413,36	61,34
413,56	63,88
413,77	65,79
413,97	60,88
414,18	65,76
414,38	66,52
414,59	67,69
414,79	68,06
415,00	68,77
415,20	70,79
415,41	71,60
415,61	77,36
415,82	97,42
416,02	144,06
416,23	200,16
416,43	265,69
416,64	294,15
416,84	331,69
417,05	301,82
417,25	246,83
417,46	194,28
417,66	152,59
417,87	125,18
418,07	111,71
418,28	101,95
418,48	104,08
418,69	103,41
418,89	111,63
419,10	117,72
419,30	134,98
419,51	152,67
419,71	163,46
419,92	187,80
420,12	230,55
420,32	293,44
420,53	351,08
420,73	369,88
420,94	401,52
421,14	345,12
421,35	295,43
421,55	205,64
421,76	168,28
421,96	130,08
422,17	111,83
422,37	91,75
422,58	77,42
422,78	71,95
422,98	70,20
423,19	70,66
423,39	64,06
423,60	62,81
423,80	67,81
424,01	64,88
424,21	64,84
424,42	66,67
424,62	66,68
424,82	62,87
425,03	65,72
425,23	66,62
425,44	68,29
425,64	75,41
425,85	82,55
426,05	89,47
426,26	108,41
426,46	130,29
426,66	138,31
426,87	156,71
427,07	171,96
427,28	172,44
427,48	180,45
427,69	190,30
427,89	194,35
428,09	180,71
428,30	164,98
428,50	147,61
428,71	123,47
428,91	97,82
429,12	93,07
429,32	77,98
429,52	75,56
429,73	71,84
429,93	76,50
430,14	75,33
430,34	101,40
430,54	113,80
430,75	121,98
430,95	122,94
431,16	113,74
431,36	108,63
431,56	100,63
431,77	87,13
431,97	83,32
432,18	74,59
432,38	69,23
432,59	70,13
432,79	71,02
432,99	71,82
433,20	73,86
433,40	87,47
433,61	98,20
433,81	119,73
434,01	137,23
434,22	145,83
434,42	155,49
434,62	145,55
434,83	139,01
435,03	106,19
435,24	110,01
435,44	106,47
435,64	103,41
435,85	90,49
436,05	85,27
436,26	83,56
436,46	75,44
436,66	73,14
436,87	77,04
437,07	74,06
437,27	77,18
437,48	76,15
437,68	71,49
437,89	72,42
438,09	72,75
438,29	70,21
438,50	70,57
438,70	71,87
438,90	70,25
439,11	68,76
439,31	71,60
439,51	72,19
439,72	76,04
439,92	76,94
440,13	78,05
440,33	75,29
440,53	76,05
440,74	70,22
440,94	69,43
441,14	69,99
441,35	68,12
441,55	66,02
441,75	68,09
441,96	69,32
442,16	68,05
442,36	70,46
442,57	68,55
442,77	74,22
442,97	69,69
443,18	74,33
443,38	72,81
443,58	71,11
443,79	70,52
443,99	69,36
444,20	69,18
444,40	69,30
444,60	74,58
444,81	69,49
445,01	57,55
445,21	66,79
445,42	69,55
445,62	68,99
445,82	68,40
446,02	68,61
446,23	67,32
446,43	69,95
446,63	69,81
446,84	70,46
447,04	71,90
447,24	70,29
447,45	73,16
447,65	73,45
447,85	68,74
448,06	69,49
448,26	73,68
448,46	73,07
448,67	72,99
448,87	69,10
449,07	72,42
449,28	75,77
449,48	73,62
449,68	78,09
449,88	85,84
450,09	90,77
450,29	99,38
450,49	102,39
450,70	104,16
450,90	99,71
451,10	94,81
451,31	97,10
451,51	102,55
451,71	98,12
451,91	103,17
452,12	101,38
452,32	101,48
452,52	93,00
452,73	94,45
452,93	85,64
453,13	87,65
453,33	83,51
453,54	82,57
453,74	83,99
453,94	75,67
454,15	79,72
454,35	75,55
454,55	76,62
454,75	80,91
454,96	83,28
455,16	91,88
455,36	105,30
455,57	136,84
455,77	178,19
455,97	207,34
456,17	230,18
456,38	252,55
456,58	229,34
456,78	193,70
456,98	160,99
457,19	132,72
457,39	115,90
457,59	109,34
457,79	90,45
458,00	84,71
458,20	79,82
458,40	77,57
458,60	76,26
458,81	76,27
459,01	76,00
459,21	76,63
459,41	81,25
459,62	79,54
459,82	82,96
460,02	82,85
460,22	86,05
460,43	84,49
460,63	84,49
460,83	83,21
461,03	82,21
461,24	79,79
461,44	78,58
461,64	78,97
461,84	78,47
462,05	79,18
462,25	79,36
462,45	78,78
462,65	81,16
462,86	76,96
463,06	81,97
463,26	83,93
463,46	83,78
463,66	86,59
463,87	84,29
464,07	80,62
464,27	79,11
464,47	78,58
464,68	81,93
464,88	78,91
465,08	81,00
465,28	83,68
465,48	82,23
465,69	84,92
465,89	82,52
466,09	83,20
466,29	83,81
466,49	97,96
466,70	125,21
466,90	157,96
467,10	186,29
467,30	239,69
467,50	241,53
467,71	243,49
467,91	216,53
468,11	181,88
468,31	151,15
468,51	134,74
468,72	117,66
468,92	110,23
469,12	98,14
469,32	91,20
469,52	87,74
469,73	87,17
469,93	84,47
470,13	85,74
470,33	89,00
470,53	97,18
470,74	98,58
470,94	97,82
471,14	105,16
471,34	98,50
471,54	93,47
471,74	94,14
471,95	91,65
472,15	87,59
472,35	85,97
472,55	89,20
472,75	87,33
472,95	87,41
473,16	88,53
473,36	91,20
473,56	90,30
473,76	91,59
473,96	88,52
474,16	90,49
474,37	89,11
474,57	91,33
474,77	94,22
474,97	103,63
475,17	111,33
475,37	129,68
475,58	139,12
475,78	147,74
475,98	146,32
476,18	140,97
476,38	125,94
476,58	118,72
476,78	111,22
476,99	107,43
477,19	105,13
477,39	103,07
477,59	103,01
477,79	100,14
477,99	98,56
478,19	102,11
478,40	95,58
478,60	97,28
478,80	91,60
479,00	94,06
479,20	96,22
479,40	96,40
479,60	95,72
479,81	98,43
480,01	94,95
480,21	99,98
480,41	97,24
480,61	95,99
480,81	102,99
481,01	98,52
481,21	101,29
481,42	98,02
481,62	100,72
481,82	104,89
482,02	102,17
482,22	104,66
482,42	104,03
482,62	104,83
482,82	102,20
483,02	105,77
483,23	102,23
483,43	103,52
483,63	107,00
483,83	104,98
484,03	106,88
484,23	105,72
484,43	107,36
484,63	106,78
484,83	106,17
485,04	107,35
485,24	102,16
485,44	107,28
485,64	109,02
485,84	102,65
486,04	107,71
486,24	107,42
486,44	104,68
486,64	109,21
486,84	104,62
487,04	108,79
487,25	110,94
487,45	111,76
487,65	111,97
487,85	114,26
488,05	114,50
488,25	113,41
488,45	116,85
488,65	114,84
488,85	115,88
489,05	117,61
489,25	119,14
489,45	120,09
489,65	122,36
489,86	121,41
490,06	118,23
490,26	119,30
490,46	117,64
490,66	121,23
490,86	116,16
491,06	120,70
491,26	117,75
491,46	110,36
491,66	110,68
491,86	113,63
492,06	114,77
492,26	112,72
492,46	113,36
492,66	111,03
492,86	113,21
493,06	125,68
493,27	143,00
493,47	183,02
493,67	236,09
493,87	286,76
494,07	314,62
494,27	327,83
494,47	317,79
494,67	267,52
494,87	226,84
495,07	197,72
495,27	177,75
495,47	164,44
495,67	151,37
495,87	141,03
496,07	131,30
496,27	132,56
496,47	125,08
496,67	129,83
496,87	125,21
497,07	125,76
497,27	127,83
497,47	146,13
497,67	202,92
497,87	379,12
498,07	692,15
498,27	1146,92
498,47	1722,35
498,67	2110,63
498,87	2230,75
499,07	2178,59
499,27	1842,45
499,47	1409,79
499,67	992,33
499,87	761,18
500,07	562,90
500,27	433,78
500,47	331,28
500,67	254,24
500,87	200,52
501,07	165,62
501,27	149,01
501,47	136,49
501,67	131,24
501,87	129,78
502,07	125,23
502,27	127,73
502,47	125,89
502,67	124,65
502,87	127,70
503,07	127,20
503,27	128,48
503,47	126,45
503,67	124,99
503,87	129,06
504,07	128,67
504,27	128,21
504,47	131,30
504,67	130,08
504,87	131,83
505,07	129,94
505,27	132,73
505,47	131,06
505,67	132,47
505,87	133,73
506,07	136,06
506,27	137,00
506,47	137,53
506,67	133,38
506,87	138,31
507,07	135,40
507,27	132,03
507,47	129,36
507,67	128,85
507,87	126,80
508,07	127,81
508,27	127,59
508,47	129,99
508,67	131,38
508,87	132,00
509,06	133,32
509,26	131,00
509,46	135,00
509,66	134,16
509,86	132,73
510,06	131,87
510,26	130,10
510,46	128,16
510,66	129,35
510,86	128,51
511,06	130,99
511,26	130,15
511,46	132,74
511,66	126,44
511,86	128,96
512,06	130,26
512,26	131,52
512,45	129,12
512,65	133,40
512,85	134,59
513,05	132,27
513,25	135,69
513,45	133,72
513,65	139,20
513,85	138,98
514,05	135,38
514,25	139,86
514,45	144,48
514,65	157,76
514,85	188,55
515,04	260,45
515,24	355,19
515,44	497,77
515,64	609,57
515,84	687,40
516,04	678,73
516,24	642,62
516,44	540,43
516,64	424,66
516,84	351,42
517,04	298,22
517,23	258,49
517,43	227,58
517,63	194,09
517,83	178,33
518,03	166,86
518,23	158,85
518,43	145,56
518,63	151,84
518,83	156,14
519,02	162,83
519,22	166,06
519,42	163,65
519,62	165,36
519,82	171,59
520,02	160,62
520,22	157,96
520,42	154,32
520,62	151,99
520,81	148,71
521,01	146,90
521,21	143,83
521,41	144,82
521,61	143,88
521,81	145,21
522,01	147,47
522,21	147,89
522,40	156,42
522,60	155,40
522,80	160,92
523,00	161,87
523,20	157,70
523,40	156,64
523,60	155,26
523,79	150,84
523,99	152,06
524,19	150,53
524,39	154,58
524,59	157,70
524,79	156,78
524,99	149,41
525,18	157,91
525,38	160,93
525,58	161,51
525,78	165,24
525,98	165,07
526,18	165,97
526,37	159,44
526,57	159,86
526,77	153,80
526,97	151,79
527,17	153,44
527,37	149,21
527,56	148,36
527,76	148,65
527,96	145,17
528,16	148,26
528,36	145,37
528,56	148,42
528,75	149,05
528,95	150,55
529,15	152,60
529,35	153,78
529,55	154,09
529,75	150,46
529,94	153,46
530,14	152,23
530,34	155,75
530,54	155,82
530,74	151,47
530,93	156,04
531,13	154,74
531,33	155,78
531,53	154,46
531,73	155,58
531,93	153,85
532,12	157,41
532,32	158,79
532,52	155,97
532,72	151,28
532,92	155,41
533,11	157,13
533,31	154,33
533,51	159,87
533,71	156,94
533,91	158,62
534,10	160,58
534,30	155,05
534,50	159,73
534,70	160,24
534,89	159,96
535,09	161,37
535,29	157,96
535,49	163,23
535,69	158,00
535,88	161,13
536,08	164,98
536,28	160,39
536,48	165,83
536,68	164,81
536,87	167,69
537,07	170,70
537,27	164,96
537,47	168,63
537,66	167,99
537,86	167,48
538,06	168,01
538,26	173,85
538,45	172,42
538,65	170,89
538,85	174,47
539,05	174,54
539,24	180,55
539,44	174,25
539,64	176,16
539,84	172,02
540,03	178,69
540,23	175,57
540,43	170,30
540,63	171,84
540,82	174,41
541,02	177,40
541,22	179,70
541,42	177,84
541,61	173,02
541,81	180,58
542,01	180,41
542,21	182,59
542,40	182,42
542,60	185,78
542,80	183,91
543,00	188,92
543,19	190,54
543,39	183,88
543,59	190,90
543,79	190,23
543,98	197,47
544,18	195,84
544,38	193,47
544,57	195,16
544,77	199,07
544,97	197,54
545,17	201,81
545,36	202,58
545,56	203,73
545,76	205,16
545,96	207,04
546,15	203,51
546,35	204,35
546,55	203,25
546,74	199,04
546,94	201,78
547,14	198,86
547,33	198,13
547,53	196,55
547,73	197,85
547,93	198,45
548,12	198,39
548,32	202,00
548,52	205,04
548,71	206,99
548,91	204,76
549,11	209,64
549,30	200,87
549,50	213,19
549,70	226,16
549,90	236,83
550,09	241,42
550,29	248,79
550,49	250,49
550,68	241,10
550,88	249,09
551,08	247,63
551,27	245,48
551,47	243,55
551,67	241,39
551,86	239,64
552,06	235,80
552,26	238,30
552,45	238,70
552,65	243,77
552,85	245,23
553,04	247,51
553,24	251,80
553,44	255,82
553,63	259,25
553,83	259,00
554,03	262,93
554,22	268,66
554,42	267,61
554,62	269,92
554,81	269,54
555,01	273,53
555,21	271,81
555,40	277,11
555,60	278,23
555,80	292,11
555,99	299,62
556,19	315,27
556,39	323,60
556,58	333,45
556,78	337,37
556,97	334,18
557,17	328,39
557,37	330,89
557,56	333,25
557,76	331,96
557,96	338,00
558,15	341,08
558,35	337,58
558,55	341,16
558,74	348,56
558,94	348,45
559,13	356,83
559,33	360,48
559,53	364,07
559,72	371,32
559,92	379,45
560,12	387,45
560,31	397,57
560,51	414,97
560,70	409,14
560,90	458,90
561,10	473,20
561,29	492,49
561,49	507,91
561,68	529,61
561,88	553,11
562,08	592,00
562,27	636,53
562,47	700,42
562,66	754,85
562,86	824,82
563,06	866,83
563,25	936,12
563,45	985,24
563,64	1051,79
563,84	1084,66
564,04	1143,86
564,23	1191,44
564,43	1233,84
564,62	1254,47
564,82	1302,65
565,02	1321,87
565,21	1361,13
565,41	1395,01
565,60	1418,38
565,80	1465,59
566,00	1475,83
566,19	1487,82
566,39	1510,63
566,58	1524,55
566,78	1550,27
566,97	1541,37
567,17	1562,74
567,37	1576,94
567,56	1617,56
567,76	1698,58
567,95	2257,32
568,15	4029,06
568,34	6703,50
568,54	9859,94
568,74	15089,93
568,93	20540,59
569,13	23808,88
569,32	24232,06
569,52	23927,36
569,71	21426,27
569,91	16861,30
570,10	13319,67
570,30	10594,34
570,50	8766,73
570,69	7301,27
570,89	6004,51
571,08	4987,93
571,28	4127,55
571,47	3449,36
571,67	2985,94
571,86	2650,91
572,06	2425,17
572,25	2313,73
572,45	2199,32
572,65	2168,57
572,84	2128,36
573,04	2108,22
573,23	2111,78
573,43	2091,01
573,62	2113,79
573,82	2106,99
574,01	2066,51
574,21	2109,18
574,40	2080,06
574,60	2095,00
574,79	2073,01
574,99	2071,67
575,18	2075,26
575,38	2088,44
575,57	2088,97
575,77	2095,71
575,96	2109,13
576,16	2125,53
576,35	2099,38
576,55	2140,26
576,74	2167,52
576,94	2161,66
577,13	2199,03
577,33	2209,20
577,52	2217,47
577,72	2241,52
577,91	2243,80
578,11	2274,82
578,30	2284,82
578,50	2320,46
578,69	2315,19
578,89	2347,50
579,08	2385,09
579,28	2443,76
579,47	2456,22
579,67	2509,84
579,86	2525,67
580,06	2584,89
580,25	2560,57
580,45	2599,88
580,64	2655,11
580,84	2707,72
581,03	2723,91
581,23	2797,63
581,42	2821,87
581,62	2911,97
581,81	2972,92
582,01	3076,61
582,20	3147,09
582,40	3250,25
582,59	3336,80
582,78	3473,98
582,98	3555,44
583,17	3666,80
583,37	3735,87
583,56	3912,54
583,76	4279,50
583,95	4985,87
584,15	5670,54
584,34	6753,45
584,54	7905,75
584,73	8687,87
584,93	9266,09
585,12	9433,57
585,31	9410,09
585,51	8763,60
585,70	8403,30
585,90	8072,31
586,09	7609,36
586,29	7716,34
586,48	7787,04
586,68	8100,84
586,87	8347,10
587,06	8830,84
587,26	9313,88
587,45	10136,10
587,65	10950,92
587,84	12658,36
588,04	54153,94
588,23	64201,59
588,42	64198,41
588,62	64203,63
588,81	64195,46
589,01	64202,26
589,20	64198,78
589,40	64204,10
589,59	64195,92
589,78	64199,31
589,98	64198,30
590,17	64204,05
590,37	64195,67
590,56	64202,69
590,75	64198,09
590,95	64203,25
591,14	64196,52
591,34	64203,15
591,53	64198,72
591,72	64201,23
591,92	64200,51
592,11	64200,90
592,31	64197,19
592,50	64197,82
592,69	64196,64
592,89	64203,92
593,08	64202,59
593,28	64200,28
593,47	64198,03
593,66	64199,53
593,86	64198,27
594,05	64201,18
594,25	64196,11
594,44	64202,16
594,63	64193,76
594,83	64200,41
595,02	64199,53
595,21	64198,69
595,41	64196,27
595,60	64200,69
595,80	64196,87
595,99	64204,46
596,18	64197,23
596,38	64205,96
596,57	64198,03
596,76	64201,92
596,96	64197,11
597,15	64203,63
597,35	64198,13
597,54	64202,91
597,73	64196,87
597,93	64203,37
598,12	64195,55
598,31	64203,40
598,51	64199,28
598,70	64205,25
598,89	64201,63
599,09	64199,69
599,28	64198,40
599,47	64202,30
599,67	64198,20
599,86	64203,51
600,05	64198,29
600,25	64200,40
600,44	64195,55
600,63	64201,11
600,83	64195,85
601,02	64201,06
601,21	64196,79
601,41	64201,36
601,60	64198,48
601,79	64202,01
601,99	64195,56
602,18	64202,80
602,37	64197,01
602,57	64200,21
602,76	64198,80
602,95	64201,83
603,15	64197,58
603,34	64204,16
603,53	64196,87
603,73	64203,72
603,92	64195,99
604,11	64203,27
604,31	64198,92
604,50	64201,82
604,69	64197,14
604,89	64197,94
605,08	64196,45
605,27	64200,19
605,46	64195,30
605,66	64201,73
605,85	64196,57
606,04	64203,58
606,24	64198,09
606,43	64206,38
606,62	64197,31
606,82	64201,59
607,01	64195,89
607,20	64198,98
607,39	64197,91
607,59	64202,74
607,78	64193,13
607,97	64204,26
608,17	64196,91
608,36	64202,12
608,55	64196,73
608,74	64203,43
608,94	64201,11
609,13	64202,93
609,32	64194,83
609,52	64201,63
609,71	64199,40
609,90	64199,82
610,09	64195,96
610,29	64200,14
610,48	64200,68
610,67	64199,47
610,86	64195,39
611,06	64200,20
611,25	64199,57
611,44	64201,78
611,64	64197,49
611,83	64198,98
612,02	64200,14
612,21	64200,21
612,41	64197,93
612,60	64201,84
612,79	64196,55
612,98	64200,63
613,18	64195,50
613,37	64201,22
613,56	64196,38
613,75	64196,85
613,95	64194,14
614,14	64202,42
614,33	64195,36
614,52	64203,15
614,71	64193,13
614,91	64199,23
615,10	64199,56
615,29	64203,82
615,48	64193,42
615,68	64202,78
615,87	64196,73
616,06	64198,04
616,25	64195,26
616,45	64203,16
616,64	64196,46
616,83	64201,85
617,02	64197,56
617,21	64204,40
617,41	64195,01
617,60	64200,55
617,79	64198,73
617,98	64203,50
618,18	59390,42
618,37	59350,38
618,56	57143,91
618,75	57152,12
618,94	55728,86
619,14	55749,46
619,33	55705,97
619,52	55702,98
619,71	55697,75
619,90	55697,89
620,10	55691,50
620,29	55692,63
620,48	55687,89
620,67	55693,55
620,86	50755,46
621,06	53730,66
621,25	22676,13
621,44	24654,91
621,63	6165,67
621,82	6932,11
622,01	671,29
622,21	660,77
622,40	647,63
622,59	642,76
622,78	627,83
622,97	630,27
623,17	609,94
623,36	617,95
623,55	603,23
623,74	603,66
623,93	593,03
624,12	596,78
624,32	582,73
624,51	587,54
624,70	573,49
624,89	576,28
625,08	569,59
625,27	567,95
625,47	561,67
625,66	561,58
625,85	542,88
626,04	548,43
626,23	545,93
626,42	544,87
626,61	536,32
626,81	533,56
627,00	523,22
627,19	524,61
627,38	508,91
627,57	510,34
627,76	503,59
627,95	497,94
628,15	487,49
628,34	489,54
628,53	489,66
628,72	481,61
628,91	480,49
629,10	476,55
629,29	476,47
629,49	471,36
629,68	471,86
629,87	478,18
630,06	470,99
630,25	469,66
630,44	470,29
630,63	473,51
630,82	470,47
631,01	474,40
631,21	467,35
631,40	466,59
631,59	462,36
631,78	456,91
631,97	457,57
632,16	452,94
632,35	444,54
632,54	440,08
632,73	434,41
632,93	432,39
633,12	433,49
633,31	433,97
633,50	424,57
633,69	428,55
633,88	418,12
634,07	422,95
634,26	421,79
634,45	419,63
634,64	416,71
634,84	415,58
635,03	412,61
635,22	415,67
635,41	408,28
635,60	413,53
635,79	403,84
635,98	411,59
636,17	397,13
636,36	405,60
636,55	400,94
636,74	399,93
636,93	401,98
637,12	402,02
637,32	393,73
637,51	393,73
637,70	398,00
637,89	394,08
638,08	383,76
638,27	388,38
638,46	388,63
638,65	385,05
638,84	388,61
639,03	383,26
639,22	386,48
639,41	382,04
639,60	371,81
639,79	371,82
639,98	368,40
640,17	363,12
640,36	363,13
640,56	355,83
640,75	359,71
640,94	352,80
641,13	352,10
641,32	355,19
641,51	374,86
641,70	395,34
641,89	408,84
642,08	419,12
642,27	419,69
642,46	420,23
642,65	394,71
642,84	386,27
643,03	373,18
643,22	359,78
643,41	356,87
643,60	352,90
643,79	343,32
643,98	344,50
644,17	334,84
644,36	333,94
644,55	328,13
644,74	326,65
644,93	324,10
645,12	318,31
645,31	314,40
645,50	304,85
645,69	313,05
645,88	304,87
646,07	305,83
646,26	307,39
646,45	304,89
646,64	300,48
646,83	301,97
647,02	297,52
647,21	299,57
647,40	296,87
647,59	295,37
647,78	293,26
647,97	293,67
648,16	297,43
648,35	293,25
648,54	291,32
648,73	290,39
648,92	292,55
649,11	285,06
649,30	291,73
649,49	290,40
649,68	298,68
649,87	308,72
650,06	312,68
650,25	317,79
650,44	323,02
650,63	320,23
650,82	307,34
651,01	299,59
651,20	292,53
651,39	290,09
651,58	285,37
651,77	283,18
651,96	276,29
652,15	272,35
652,33	272,69
652,52	266,15
652,71	265,98
652,90	264,93
653,09	260,10
653,28	262,58
653,47	264,40
653,66	263,93
653,85	265,04
654,04	263,20
654,23	265,26
654,42	264,44
654,61	262,71
654,80	259,89
654,99	259,67
655,18	253,43
655,37	248,41
655,55	250,36
655,74	249,21
655,93	243,88
656,12	243,06
656,31	241,67
656,50	238,30
656,69	241,91
656,88	237,33
657,07	236,53
657,26	237,33
657,45	237,18
657,64	230,51
657,83	234,32
658,01	231,21
658,20	228,82
658,39	231,68
658,58	225,34
658,77	226,34
658,96	224,32
659,15	224,43
659,34	222,49
659,53	222,40
659,72	222,02
659,90	217,34
660,09	219,49
660,28	223,13
660,47	219,92
660,66	225,76
660,85	225,69
661,04	226,17
661,23	224,53
661,42	224,14
661,60	218,82
661,79	218,28
661,98	213,11
662,17	212,34
662,36	211,35
662,55	206,84
662,74	212,03
662,93	198,50
663,11	203,98
663,30	203,50
663,49	203,77
663,68	202,07
663,87	199,33
664,06	200,17
664,25	196,72
664,44	196,51
664,62	196,66
664,81	199,63
665,00	193,96
665,19	193,41
665,38	188,31
665,57	192,09
665,76	188,15
665,94	191,08
666,13	190,77
666,32	195,14
666,51	191,88
666,70	190,49
666,89	190,94
667,07	192,42
667,26	189,83
667,45	191,93
667,64	212,37
667,83	231,94
668,02	247,29
668,20	255,78
668,39	260,00
668,58	253,50
668,77	236,02
668,96	220,53
669,15	214,04
669,33	200,29
669,52	192,77
669,71	189,54
669,90	184,06
670,09	184,41
670,27	181,40
670,46	177,60
670,65	171,87
670,84	170,48
671,03	165,05
671,22	162,87
671,40	160,43
671,59	160,87
671,78	159,06
671,97	161,03
672,16	159,91
672,34	158,61
672,53	158,12
672,72	159,68
672,91	154,30
673,09	153,75
673,28	155,96
673,47	151,92
673,66	148,34
673,85	150,13
674,03	148,98
674,22	148,90
674,41	145,28
674,60	147,27
674,79	151,13
674,97	160,11
675,16	181,44
675,35	217,10
675,54	240,97
675,72	263,92
675,91	274,14
676,10	263,97
676,29	242,99
676,47	227,73
676,66	208,28
676,85	196,99
677,04	184,13
677,23	175,09
677,41	170,09
677,60	163,41
677,79	154,95
677,98	149,48
678,16	141,69
678,35	139,37
678,54	132,96
678,73	131,05
678,91	128,78
679,10	123,60
679,29	126,47
679,48	123,44
679,66	123,08
679,85	122,83
680,04	116,97
680,22	117,27
680,41	118,41
680,60	118,79
680,79	116,77
680,97	118,96
681,16	116,73
681,35	115,53
681,54	115,90
681,72	113,35
681,91	116,89
682,10	114,59
682,28	115,13
682,47	112,37
682,66	115,10
682,85	113,19
683,03	114,16
683,22	116,69
683,41	109,54
683,59	111,74
683,78	108,75
683,97	111,25
684,16	107,84
684,34	104,23
684,53	108,17
684,72	107,73
684,90	108,67
685,09	106,85
685,28	104,48
685,46	106,92
685,65	105,08
685,84	104,01
686,03	102,40
686,21	104,77
686,40	101,87
686,59	104,49
686,77	107,63
686,96	130,25
687,15	159,04
687,33	181,94
687,52	197,92
687,71	210,18
687,89	210,01
688,08	195,50
688,27	175,48
688,45	167,34
688,64	153,19
688,83	152,63
689,01	141,96
689,20	139,09
689,39	132,50
689,57	128,32
689,76	120,06
689,95	115,71
690,13	108,37
690,32	103,42
690,51	102,04
690,69	101,60
690,88	99,37
691,07	99,20
691,25	99,72
691,44	97,68
691,62	96,09
691,81	99,23
692,00	94,57
692,18	95,04
692,37	99,00
692,56	94,70
692,74	102,10
692,93	101,39
693,12	105,60
693,30	105,80
693,49	110,18
693,67	118,83
693,86	124,77
694,05	135,56
694,23	137,08
694,42	146,07
694,61	142,81
694,79	136,24
694,98	129,42
695,16	127,09
695,35	125,93
695,54	127,11
695,72	138,18
695,91	178,31
696,09	422,29
696,28	1753,41
696,47	5198,72
696,65	8494,41
696,84	10803,46
697,02	12646,00
697,21	13513,91
697,40	12441,05
697,58	9432,40
697,77	7588,44
697,95	6170,74
698,14	4935,90
698,33	4021,60
698,51	3377,86
698,70	2796,21
698,88	2304,31
699,07	1847,15
699,25	1402,02
699,44	1008,24
699,63	679,58
699,81	461,98
700,00	325,70
700,18	234,46
700,37	179,14
700,55	145,58
700,74	128,99
700,93	118,07
701,11	107,44
701,30	105,15
701,48	103,41
701,67	101,45
701,85	97,58
702,04	95,15
702,23	91,06
702,41	93,87
702,60	96,58
702,78	107,92
702,97	132,90
703,15	157,60
703,34	175,55
703,52	187,45
703,71	193,09
703,89	183,80
704,08	163,18
704,27	149,96
704,45	136,94
704,64	127,10
704,82	122,28
705,01	113,17
705,19	109,74
705,38	106,82
705,56	106,36
705,75	106,81
705,93	109,26
706,12	141,33
706,30	323,38
706,49	1228,81
706,67	3381,09
706,86	5156,51
707,04	6592,84
707,23	7535,52
707,41	8040,53
707,60	7125,23
707,78	5495,86
707,97	4427,87
708,15	3592,84
708,34	2920,10
708,52	2388,97
708,71	1977,14
708,89	1645,96
709,08	1349,53
709,26	1078,29
709,45	801,94
709,63	558,63
709,82	382,61
710,00	263,97
710,19	193,11
710,37	153,32
710,56	129,52
710,74	116,41
710,93	114,75
711,11	111,03
711,30	107,48
711,48	106,16
711,67	99,11
711,85	99,14
712,04	95,35
712,22	90,08
712,41	95,43
712,59	91,57
712,78	93,56
712,96	90,29
713,14	88,99
713,33	91,81
713,51	89,63
713,70	86,57
713,88	87,00
714,07	88,15
714,25	102,11
714,44	167,86
714,62	319,40
714,81	491,31
714,99	605,52
715,17	720,84
715,36	765,54
715,54	706,78
715,73	564,97
715,91	456,92
716,10	393,17
716,28	334,44
716,47	290,46
716,65	254,43
716,83	222,76
717,02	198,31
717,20	170,04
717,39	145,56
717,57	126,70
717,76	105,46
717,94	98,04
718,12	89,43
718,31	83,22
718,49	77,04
718,68	78,78
718,86	79,41
719,04	73,57
719,23	74,09
719,41	71,61
719,60	75,62
719,78	68,68
719,97	70,39
720,15	76,30
720,33	75,05
720,52	75,15
720,70	86,28
720,89	91,20
721,07	93,38
721,25	95,47
721,44	97,85
721,62	93,86
721,80	90,52
721,99	84,08
722,17	81,06
722,36	79,90
722,54	77,03
722,72	78,86
722,91	75,56
723,09	75,56
723,28	75,31
723,46	75,67
723,64	73,51
723,83	76,08
724,01	77,08
724,19	77,02
724,38	71,00
724,56	73,13
724,74	71,62
724,93	73,33
725,11	71,83
725,30	76,56
725,48	74,16
725,66	70,98
725,85	72,93
726,03	73,96
726,21	78,39
726,40	75,26
726,58	88,36
726,76	112,87
726,95	254,39
727,13	727,50
727,31	1487,77
727,50	2038,93
727,68	2497,19
727,86	2782,45
728,05	2807,43
728,23	2272,93
728,41	1692,55
728,60	1437,60
728,78	1138,10
728,96	927,86
729,15	742,47
729,33	607,92
729,51	479,98
729,70	380,01
729,88	298,73
730,06	231,93
730,25	181,31
730,43	142,62
730,61	118,32
730,80	102,22
730,98	95,97
731,16	95,55
731,35	94,76
731,53	97,01
731,71	96,72
731,89	101,64
732,08	97,66
732,26	96,60
732,44	91,88
732,63	87,12
732,81	84,57
732,99	81,84
733,18	81,69
733,36	81,42
733,54	82,16
733,72	78,19
733,91	75,91
734,09	73,66
734,27	72,54
734,46	75,59
734,64	81,98
734,82	81,76
735,00	83,94
735,19	98,57
735,37	111,67
735,55	118,36
735,73	123,93
735,92	124,72
736,10	130,60
736,28	121,52
736,46	108,58
736,65	109,89
736,83	110,98
737,01	126,68
737,20	162,53
737,38	181,51
737,56	214,29
737,74	267,38
737,93	512,61
738,11	1710,25
738,29	4815,73
738,47	8158,23
738,66	10195,33
738,84	12210,68
739,02	13020,05
739,20	12398,75
739,38	9754,20
739,57	7715,64
739,75	6356,59
739,93	5122,49
740,11	4028,98
740,30	3094,87
740,48	2338,90
740,66	1739,96
740,84	1315,51
741,03	989,84
741,21	755,37
741,39	552,11
741,57	396,94
741,75	285,26
741,94	217,75
742,12	175,21
742,30	147,09
742,48	128,25
742,66	120,23
742,85	109,18
743,03	106,50
743,21	107,07
743,39	107,29
743,57	115,79
743,76	113,19
743,94	113,22
744,12	119,55
744,30	117,47
744,48	109,89
744,67	101,19
744,85	104,06
745,03	96,35
745,21	92,36
745,39	92,46
745,58	88,85
745,76	81,23
745,94	86,93
746,12	83,77
746,30	85,49
746,48	86,97
746,67	88,73
746,85	89,02
747,03	94,73
747,21	94,77
747,39	103,06
747,57	105,51
747,76	105,60
747,94	106,58
748,12	100,99
748,30	102,69
748,48	109,97
748,66	110,29
748,85	111,84
749,03	111,20
749,21	114,34
749,39	118,01
749,57	126,46
749,75	178,21
749,93	415,59
750,12	1458,08
750,30	3871,42
750,48	6085,81
750,66	7678,20
750,84	8989,34
751,02	9970,96
751,20	10388,72
751,39	10863,01
751,57	11666,86
751,75	12121,24
751,93	12312,25
752,11	11973,39
752,29	10622,01
752,47	8197,54
752,65	6495,08
752,84	5239,63
753,02	4074,39
753,20	3055,95
753,38	2277,07
753,56	1697,89
753,74	1285,74
753,92	1022,28
754,10	813,30
754,28	652,78
754,46	509,09
754,65	377,84
754,83	291,71
755,01	217,02
755,19	175,77
755,37	150,19
755,55	131,17
755,73	119,26
755,91	115,08
756,09	105,71
756,27	105,18
756,46	98,61
756,64	100,01
756,82	100,61
757,00	97,39
757,18	95,66
757,36	98,27
757,54	96,75
757,72	99,21
757,90	97,79
758,08	98,06
758,26	94,18
758,44	92,33
758,62	96,63
758,80	96,45
758,99	98,28
759,17	92,26
759,35	98,91
759,53	102,67
759,71	99,83
759,89	103,46
760,07	111,28
760,25	118,04
760,43	127,93
760,61	126,93
760,79	131,28
760,97	129,87
761,15	128,57
761,33	124,71
761,51	122,65
761,69	127,36
761,87	131,48
762,05	140,95
762,23	150,00
762,41	162,68
762,59	193,44
762,77	290,51
762,95	802,37
763,13	3712,86
763,31	12558,07
763,50	26290,82
763,68	36663,63
763,86	44571,87
764,04	49270,20
764,22	49203,10
764,40	43685,60
764,58	33172,10
764,76	25025,48
764,94	18898,36
765,12	14115,77
765,30	10361,34
765,48	7988,91
765,66	6316,47
765,84	5298,87
766,02	4732,17
766,20	4566,56
766,38	5190,38
766,56	5901,98
766,74	6219,21
766,92	6476,58
767,10	6462,52
767,28	5995,21
767,46	4665,79
767,64	3410,73
767,82	2581,42
767,99	1930,06
768,17	1409,18
768,35	1073,18
768,53	849,02
768,71	708,09
768,89	622,07
769,07	554,91
769,25	502,56
769,43	514,72
769,61	735,40
769,79	1354,96
769,97	2115,57
770,15	2629,18
770,33	3070,22
770,51	3255,04
770,69	3107,74
770,87	2459,72
771,05	1771,74
771,23	1357,64
771,41	1014,82
771,59	804,73
771,77	730,43
771,95	1107,89
772,13	3043,91
772,31	7744,24
772,48	12829,06
772,66	16612,13
772,84	19226,60
773,02	20312,32
773,20	18639,32
773,38	14314,95
773,56	10104,45
773,74	7589,31
773,92	5451,29
774,10	4034,59
774,28	3084,69
774,46	2412,90
774,64	1996,72
774,81	1693,17
774,99	1467,88
775,17	1265,60
775,35	1053,64
775,53	834,22
775,71	623,79
775,89	447,74
776,07	322,82
776,25	234,93
776,43	186,66
776,61	149,99
776,78	129,97
776,96	111,95
777,14	106,37
777,32	98,44
777,50	90,09
777,68	87,05
777,86	87,24
778,04	79,93
778,22	82,09
778,39	76,49
778,57	77,54
778,75	80,79
778,93	73,99
779,11	75,41
779,29	76,00
779,47	73,83
779,65	75,09
779,82	78,85
780,00	77,34
780,18	81,04
780,36	83,58
780,54	82,13
780,72	82,30
780,90	76,82
781,08	77,05
781,25	73,96
781,43	75,49
781,61	70,27
781,79	69,16
781,97	72,55
782,15	70,74
782,32	70,11
782,50	66,88
782,68	72,26
782,86	69,95
783,04	69,83
783,22	69,47
783,39	67,34
783,57	64,24
783,75	69,07
783,93	66,84
784,11	67,66
784,29	69,66
784,46	66,57
784,64	68,50
784,82	66,40
785,00	68,81
785,18	66,57
785,36	66,61
785,53	68,11
785,71	70,57
785,89	68,45
786,07	67,01
786,25	69,30
786,42	68,42
786,60	70,00
786,78	69,09
786,96	74,00
787,14	72,27
787,31	69,21
787,49	71,05
787,67	70,49
787,85	69,10
788,03	70,08
788,20	65,56
788,38	68,54
788,56	67,91
788,74	70,51
788,92	72,38
789,09	80,46
789,27	81,91
789,45	82,02
789,63	84,36
789,80	87,20
789,98	84,80
790,16	73,12
790,34	78,71
790,52	72,66
790,69	74,80
790,87	75,26
791,05	74,39
791,23	76,12
791,40	71,46
791,58	79,83
791,76	81,03
791,94	84,69
792,11	81,90
792,29	83,96
792,47	82,53
792,65	87,33
792,82	84,64
793,00	82,91
793,18	89,63
793,36	89,47
793,53	91,51
793,71	96,35
793,89	109,62
794,07	136,06
794,24	220,44
794,42	735,89
794,60	2770,75
794,78	6126,53
794,95	8470,84
795,13	9991,33
795,31	10904,22
795,48	10732,70
795,66	8568,52
795,84	5868,23
796,02	4231,41
796,19	3202,56
796,37	2459,66
796,55	1989,66
796,72	1612,48
796,90	1331,99
797,08	1143,56
797,26	1004,72
797,43	881,90
797,61	784,70
797,79	702,27
797,96	604,30
798,14	485,20
798,32	384,04
798,49	300,61
798,67	235,28
798,85	192,22
799,02	164,71
799,20	152,83
799,38	139,86
799,56	140,03
799,73	141,24
799,91	155,39
800,09	239,33
800,26	686,16
800,44	2029,48
800,62	3704,49
800,79	4859,12
800,97	5836,58
801,15	7400,31
801,32	9561,22
801,50	11073,56
801,68	11452,27
801,85	12038,34
802,03	11945,59
802,21	10907,49
802,38	8142,77
802,56	5792,29
802,74	4549,45
802,91	3590,83
803,09	2953,65
803,26	2454,99
803,44	2110,19
803,62	1781,94
803,79	1538,88
803,97	1325,23
804,15	1125,34
804,32	974,92
804,50	825,59
804,68	701,37
804,85	564,94
805,03	447,23
805,20	354,37
805,38	285,52
805,56	231,46
805,73	208,40
805,91	188,81
806,09	173,78
806,26	162,74
806,44	159,43
806,61	152,43
806,79	149,81
806,97	150,08
807,14	150,56
807,32	148,54
807,49	151,84
807,67	153,05
807,85	157,49
808,02	157,46
808,20	161,69
808,37	166,03
808,55	167,65
808,73	178,69
808,90	184,05
809,08	194,88
809,25	202,30
809,43	216,36
809,61	238,56
809,78	386,55
809,96	1159,35
810,13	3498,81
810,31	6947,87
810,48	9630,00
810,66	11411,15
810,84	12582,64
811,01	13427,71
811,19	15868,65
811,36	21889,78
811,54	30373,08
811,71	36184,07
811,89	39393,04
812,07	40622,26
812,24	37201,14
812,42	28691,01
812,59	20359,19
812,77	16138,67
812,94	13302,82
813,12	10916,73
813,29	9443,22
813,47	8057,80
813,65	6975,43
813,82	6010,42
814,00	5210,86
814,17	4544,69
814,35	3980,19
814,52	3541,21
814,70	3079,66
814,87	2559,78
815,05	1992,97
815,22	1481,91
815,40	1066,14
815,57	776,90
815,75	596,58
815,92	478,65
816,10	407,92
816,28	358,77
816,45	334,11
816,63	317,29
816,80	314,19
816,98	318,72
817,15	332,76
817,33	357,74
817,50	414,25
817,68	770,80
817,85	2301,54
818,03	6604,72
818,20	13888,13
818,38	21662,86
818,55	26656,74
818,73	29837,57
818,90	31503,42
819,08	32400,68
819,25	35429,18
819,43	42800,45
819,60	50605,11
819,78	54881,26
819,95	56161,45
820,12	54784,50
820,30	46423,17
820,47	34217,27
820,65	25456,60
820,82	21951,54
821,00	17832,32
821,17	15392,31
821,35	13342,16
821,52	11524,37
821,70	10030,37
821,87	8706,01
822,05	7511,24
822,22	6459,88
822,40	5766,22
822,57	5111,74
822,74	4371,78
822,92	3727,26
823,09	2887,25
823,27	2120,76
823,44	1523,82
823,62	1099,43
823,79	793,90
823,97	591,75
824,14	472,60
824,31	383,80
824,49	326,41
824,66	285,36
824,84	251,93
825,01	231,22
825,19	217,24
825,36	209,40
825,54	211,71
825,71	246,47
825,88	392,54
826,06	863,75
826,23	1941,22
826,41	3474,58
826,58	4712,77
826,75	5593,51
826,93	5896,79
827,10	5803,02
827,28	4840,78
827,45	3661,84
827,62	2756,99
827,80	2342,96
827,97	1945,07
828,15	1653,06
828,32	1437,86
828,49	1236,96
828,67	1080,53
828,84	963,39
829,02	833,34
829,19	749,11
829,36	686,75
829,54	616,01
829,71	560,74
829,89	481,84
830,06	391,74
830,23	314,90
830,41	248,60
830,58	203,17
830,75	167,18
830,93	145,55
831,10	128,29
831,28	122,22
831,45	111,88
831,62	106,81
831,80	100,75
831,97	101,06
832,14	96,38
832,32	98,01
832,49	93,57
832,66	91,46
832,84	93,62
833,01	92,61
833,19	90,66
833,36	90,70
833,53	86,64
833,71	85,36
833,88	85,85
834,05	86,95
834,23	86,48
834,40	81,66
834,57	83,59
834,75	82,45
834,92	85,47
835,09	83,78
835,27	84,44
835,44	81,63
835,61	75,89
835,79	75,73
835,96	76,55
836,13	78,81
836,31	74,10
836,48	73,59
836,65	72,39
836,82	75,53
837,00	74,83
837,17	76,38
837,34	70,61
837,52	76,50
837,69	74,36
837,86	79,14
838,04	77,51
838,21	79,44
838,38	80,65
838,55	80,82
838,73	80,84
838,90	86,76
839,07	82,20
839,25	84,91
839,42	80,09
839,59	91,23
839,76	99,97
839,94	120,13
840,11	180,05
840,28	341,79
840,46	745,00
840,63	1624,33
840,80	2948,99
840,97	4369,85
841,15	5256,11
841,32	5792,94
841,49	5797,94
841,66	5485,72
841,84	4656,36
842,01	4031,71
842,18	4232,94
842,36	5298,73
842,53	6839,34
842,70	8151,36
842,87	8936,95
843,05	9067,40
843,22	8793,15
843,39	7791,79
843,56	6378,91
843,73	5161,05
843,91	4416,68
844,08	3962,93
844,25	3426,27
844,42	2931,81
844,60	2598,20
844,77	2158,12
844,94	1868,93
845,11	1603,53
845,29	1371,26
845,46	1207,46
845,63	1048,48
845,80	931,66
845,97	791,77
846,15	635,06
846,32	494,37
846,49	364,72
846,66	265,35
846,84	193,78
847,01	148,81
847,18	117,48
847,35	97,93
847,52	81,70
847,70	75,82
847,87	63,01
848,04	64,61
848,21	61,24
848,38	58,03
848,56	54,54
848,73	56,47
848,90	53,83
849,07	52,80
849,24	49,79
849,41	52,95
849,59	51,33
849,76	50,77
849,93	51,49
850,10	48,66
850,27	47,05
850,44	47,49
850,62	45,06
850,79	44,48
850,96	46,96
851,13	50,86
851,30	55,44
851,47	70,67
851,65	105,02
851,82	179,19
851,99	327,08
852,16	604,84
852,33	947,21
852,50	1303,45
852,68	1538,51
852,85	1599,16
853,02	1562,65
853,19	1416,90
853,36	1175,92
853,53	922,14
853,70	769,09
853,88	683,28
854,05	620,09
854,22	529,79
854,39	468,82
854,56	437,13
854,73	379,74
854,90	348,32
855,07	307,28
855,25	280,53
855,42	256,49
855,59	234,72
855,76	207,35
855,93	179,49
856,10	144,57
856,27	115,66
856,44	91,28
856,61	73,11
856,79	61,39
856,96	54,96
857,13	48,86
857,30	45,46
857,47	40,06
857,64	39,88
857,81	39,49
857,98	35,89
858,15	36,67
858,32	32,89
858,50	33,65
858,67	34,93
858,84	36,31
859,01	32,67
859,18	35,13
859,35	33,40
859,52	28,75
859,69	33,16
859,86	29,66
860,03	30,13
860,20	29,18
860,37	31,80
860,54	31,10
860,71	34,77
860,89	34,05
861,06	33,10
861,23	35,67
861,40	31,71
861,57	33,21
861,74	31,96
861,91	33,17
862,08	31,48
862,25	30,35
862,42	34,20
862,59	32,01
862,76	29,91
862,93	35,03
863,10	32,46
863,27	29,58
863,44	31,75
863,61	32,13
863,78	31,64
863,95	30,68
864,12	31,10
864,29	29,82
864,46	29,34
864,63	30,16
864,80	27,38
864,97	25,85
865,14	31,35
865,32	32,16
865,49	30,79
865,66	30,50
865,83	28,25
866,00	30,33
866,17	28,69
866,34	33,09
866,51	37,84
866,68	46,36
866,85	60,55
867,02	89,18
867,19	122,76
867,36	156,52
867,53	185,37
867,70	205,65
867,86	212,14
868,03	200,37
868,20	183,29
868,37	160,72
868,54	135,19
868,71	123,08
868,88	117,58
869,05	111,51
869,22	102,03
869,39	90,17
869,56	90,52
869,73	82,02
869,90	77,07
870,07	68,26
870,24	67,68
870,41	63,88
870,58	59,10
870,75	50,54
870,92	46,97
871,09	39,18
871,26	38,67
871,43	34,64
871,60	28,23
871,77	32,25
871,94	31,45
872,11	27,35
872,28	32,25
872,44	27,03
872,61	26,35
872,78	24,08
872,95	28,74
873,12	26,38
873,29	27,78
873,46	24,51
873,63	24,41
873,80	28,56
873,97	24,45
874,14	25,03
874,31	27,97
874,48	24,74
874,64	26,09
874,81	24,14
874,98	22,39
875,15	23,09
875,32	24,99
875,49	24,55
875,66	26,75
875,83	26,46
876,00	23,64
876,17	26,15
876,34	24,73
876,50	28,93
876,67	26,26
876,84	24,28
877,01	24,44
877,18	25,10
877,35	25,15
877,52	24,38
877,69	22,68
877,85	25,82
878,02	26,23
878,19	25,46
878,36	25,62
878,53	27,36
878,70	24,06
878,87	27,06
879,04	26,58
879,20	26,54
879,37	27,13
879,54	23,64
879,71	24,19
879,88	28,02
880,05	24,75
880,22	24,47
880,38	21,97
880,55	25,09
880,72	24,74
880,89	25,59
881,06	27,89
881,23	25,81
881,40	22,98
881,56	23,88
881,73	26,74
881,90	21,10
882,07	26,06
882,24	25,05
882,41	27,15
882,57	21,23
882,74	24,35
882,91	26,72
883,08	23,65
883,25	28,88
883,41	25,10
883,58	25,56
883,75	24,51
883,92	25,36
884,09	26,84
884,26	25,24
884,42	23,18
884,59	24,51
884,76	24,67
884,93	25,38
885,10	24,42
885,26	25,05
885,43	24,14
885,60	23,52
885,77	27,51
885,93	23,32
886,10	23,89
886,27	26,71
886,44	26,49
886,61	25,06
886,77	23,37
886,94	26,74
887,11	27,03
887,28	25,32
887,45	26,12
887,61	25,55
887,78	24,73
887,95	23,42
888,12	23,65
888,28	26,31
888,45	24,99
888,62	25,60
888,79	25,18
888,95	25,11
889,12	26,23
889,29	26,78
889,46	25,80
889,62	25,70
>>>>>End Processed Spectral Data<<<<<
